PE UV       SUBTECH     SPECTRUM    ASCII       PEDS        4.00        
   -1
0.016M.Sample.Raw.asc
14/04/16
17:03:10.00
14/04/16
17:03:10.00
Studente LDss

450.000000
1
Lambda 25
COM
PerkinElmer UV WinLab 6.0.4.0738 / Lambda25 1.27

480
2
1
0
0
Both on
1
1
1
None
0
0
0
0
 
 
0
0
0
0
0
 
 
 
0
 
0
326
0
 
0
 
 
 
0
0
0
 
0
 
 
 
0
 
 
0
0
0
0
0
 
 
 
 
0
0


0
0
#HDR
-1
-1
#GR
nm
A
1.0
0.0
950.000000
-1.000000
501
8
0.198186
0.002409
#DATA
950.000000	0.152867
949.000000	0.153421
948.000000	0.153907
947.000000	0.154340
946.000000	0.154760
945.000000	0.155257
944.000000	0.155690
943.000000	0.156135
942.000000	0.156722
941.000000	0.157169
940.000000	0.157665
939.000000	0.158179
938.000000	0.158483
937.000000	0.158968
936.000000	0.159451
935.000000	0.159871
934.000000	0.160420
933.000000	0.160843
932.000000	0.161339
931.000000	0.161783
930.000000	0.162199
929.000000	0.162586
928.000000	0.163091
927.000000	0.163449
926.000000	0.163910
925.000000	0.164454
924.000000	0.164994
923.000000	0.165468
922.000000	0.165900
921.000000	0.166365
920.000000	0.166705
919.000000	0.167268
918.000000	0.167623
917.000000	0.168178
916.000000	0.168507
915.000000	0.169094
914.000000	0.169525
913.000000	0.169982
912.000000	0.170382
911.000000	0.170956
910.000000	0.171445
909.000000	0.171773
908.000000	0.172261
907.000000	0.172727
906.000000	0.173090
905.000000	0.173641
904.000000	0.173984
903.000000	0.174403
902.000000	0.174764
901.000000	0.175498
900.000000	0.175763
899.000000	0.176165
898.000000	0.176411
897.000000	0.176957
896.000000	0.177454
895.000000	0.177860
894.000000	0.178206
893.000000	0.178767
892.000000	0.179018
891.000000	0.179594
890.000000	0.179960
889.000000	0.180500
888.000000	0.180901
887.000000	0.181364
886.000000	0.181606
885.000000	0.182085
884.000000	0.182506
883.000000	0.182851
882.000000	0.183418
881.000000	0.183706
880.000000	0.184110
879.000000	0.184562
878.000000	0.184866
877.000000	0.185408
876.000000	0.185684
875.000000	0.186199
874.000000	0.186435
873.000000	0.186828
872.000000	0.187169
871.000000	0.187598
870.000000	0.187894
869.000000	0.188297
868.000000	0.188858
867.000000	0.189037
866.000000	0.189314
865.000000	0.189693
864.000000	0.189987
863.000000	0.190476
862.000000	0.190795
861.000000	0.190953
860.000000	0.191402
859.000000	0.191697
858.000000	0.191942
857.000000	0.192225
856.000000	0.192571
855.000000	0.192732
854.000000	0.193135
853.000000	0.193350
852.000000	0.193629
851.000000	0.193925
850.000000	0.194078
849.000000	0.194285
848.000000	0.194629
847.000000	0.194931
846.000000	0.195108
845.000000	0.195300
844.000000	0.195527
843.000000	0.195842
842.000000	0.195919
841.000000	0.196150
840.000000	0.196392
839.000000	0.196572
838.000000	0.196673
837.000000	0.196878
836.000000	0.197021
835.000000	0.197092
834.000000	0.197470
833.000000	0.197370
832.000000	0.197592
831.000000	0.197697
830.000000	0.197634
829.000000	0.197861
828.000000	0.197994
827.000000	0.198088
826.000000	0.197994
825.000000	0.198172
824.000000	0.197987
823.000000	0.198109
822.000000	0.198186
821.000000	0.198060
820.000000	0.198044
819.000000	0.198050
818.000000	0.198057
817.000000	0.197987
816.000000	0.197886
815.000000	0.197815
814.000000	0.197720
813.000000	0.197525
812.000000	0.197403
811.000000	0.197271
810.000000	0.197118
809.000000	0.197033
808.000000	0.196784
807.000000	0.196655
806.000000	0.196413
805.000000	0.196033
804.000000	0.195871
803.000000	0.195653
802.000000	0.195313
801.000000	0.195156
800.000000	0.194793
799.000000	0.194470
798.000000	0.194225
797.000000	0.193848
796.000000	0.193589
795.000000	0.193386
794.000000	0.192941
793.000000	0.192656
792.000000	0.192133
791.000000	0.191869
790.000000	0.191512
789.000000	0.190932
788.000000	0.190645
787.000000	0.190185
786.000000	0.189708
785.000000	0.189290
784.000000	0.188764
783.000000	0.188312
782.000000	0.187780
781.000000	0.187175
780.000000	0.186679
779.000000	0.185947
778.000000	0.185518
777.000000	0.184845
776.000000	0.184247
775.000000	0.183604
774.000000	0.182809
773.000000	0.182233
772.000000	0.181464
771.000000	0.180873
770.000000	0.180184
769.000000	0.179387
768.000000	0.178670
767.000000	0.177980
766.000000	0.177257
765.000000	0.176462
764.000000	0.175680
763.000000	0.174882
762.000000	0.173992
761.000000	0.173202
760.000000	0.172383
759.000000	0.171518
758.000000	0.170654
757.000000	0.169804
756.000000	0.169013
755.000000	0.168007
754.000000	0.167069
753.000000	0.166088
752.000000	0.165158
751.000000	0.164197
750.000000	0.163331
749.000000	0.162252
748.000000	0.161301
747.000000	0.160280
746.000000	0.159290
745.000000	0.158282
744.000000	0.157139
743.000000	0.156209
742.000000	0.155140
741.000000	0.154009
740.000000	0.152891
739.000000	0.151899
738.000000	0.150818
737.000000	0.149724
736.000000	0.148690
735.000000	0.147656
734.000000	0.146421
733.000000	0.145489
732.000000	0.144355
731.000000	0.143157
730.000000	0.142029
729.000000	0.140882
728.000000	0.139585
727.000000	0.138491
726.000000	0.137275
725.000000	0.136139
724.000000	0.134907
723.000000	0.133656
722.000000	0.132463
721.000000	0.131251
720.000000	0.129946
719.000000	0.128848
718.000000	0.127626
717.000000	0.126369
716.000000	0.125150
715.000000	0.123994
714.000000	0.122688
713.000000	0.121392
712.000000	0.120258
711.000000	0.118978
710.000000	0.117696
709.000000	0.116545
708.000000	0.115191
707.000000	0.114013
706.000000	0.112814
705.000000	0.111460
704.000000	0.110358
703.000000	0.109045
702.000000	0.107760
701.000000	0.106634
700.000000	0.105354
699.000000	0.104147
698.000000	0.102850
697.000000	0.101717
696.000000	0.100325
695.000000	0.099198
694.000000	0.097942
693.000000	0.096647
692.000000	0.095519
691.000000	0.094354
690.000000	0.093007
689.000000	0.091780
688.000000	0.090511
687.000000	0.089325
686.000000	0.088138
685.000000	0.086930
684.000000	0.085719
683.000000	0.084520
682.000000	0.083157
681.000000	0.082182
680.000000	0.080929
679.000000	0.079925
678.000000	0.078652
677.000000	0.077611
676.000000	0.076332
675.000000	0.075239
674.000000	0.074136
673.000000	0.073000
672.000000	0.071955
671.000000	0.070847
670.000000	0.069866
669.000000	0.068715
668.000000	0.067662
667.000000	0.066469
666.000000	0.065539
665.000000	0.064460
664.000000	0.063362
663.000000	0.062363
662.000000	0.061259
661.000000	0.060391
660.000000	0.059269
659.000000	0.058310
658.000000	0.057276
657.000000	0.056339
656.000000	0.055390
655.000000	0.054492
654.000000	0.053468
653.000000	0.052613
652.000000	0.051631
651.000000	0.050773
650.000000	0.049876
649.000000	0.048855
648.000000	0.048052
647.000000	0.047250
646.000000	0.046399
645.000000	0.045469
644.000000	0.044705
643.000000	0.043838
642.000000	0.043091
641.000000	0.042225
640.000000	0.041471
639.000000	0.040821
638.000000	0.039983
637.000000	0.039193
636.000000	0.038498
635.000000	0.037679
634.000000	0.037077
633.000000	0.036297
632.000000	0.035635
631.000000	0.034993
630.000000	0.034245
629.000000	0.033600
628.000000	0.032953
627.000000	0.032262
626.000000	0.031696
625.000000	0.031026
624.000000	0.030406
623.000000	0.029871
622.000000	0.029234
621.000000	0.028650
620.000000	0.028081
619.000000	0.027530
618.000000	0.026946
617.000000	0.026360
616.000000	0.025948
615.000000	0.025281
614.000000	0.024828
613.000000	0.024315
612.000000	0.023838
611.000000	0.023279
610.000000	0.022898
609.000000	0.022410
608.000000	0.021949
607.000000	0.021530
606.000000	0.021058
605.000000	0.020586
604.000000	0.020203
603.000000	0.019851
602.000000	0.019400
601.000000	0.019069
600.000000	0.018659
599.000000	0.018204
598.000000	0.017966
597.000000	0.017605
596.000000	0.017125
595.000000	0.016843
594.000000	0.016451
593.000000	0.016040
592.000000	0.015802
591.000000	0.015446
590.000000	0.015120
589.000000	0.014848
588.000000	0.014519
587.000000	0.014166
586.000000	0.013905
585.000000	0.013675
584.000000	0.013302
583.000000	0.013156
582.000000	0.012759
581.000000	0.012458
580.000000	0.012280
579.000000	0.011975
578.000000	0.011671
577.000000	0.011522
576.000000	0.011117
575.000000	0.010947
574.000000	0.010741
573.000000	0.010506
572.000000	0.010146
571.000000	0.010187
570.000000	0.009889
569.000000	0.009786
568.000000	0.009504
567.000000	0.009372
566.000000	0.009133
565.000000	0.008970
564.000000	0.008818
563.000000	0.008654
562.000000	0.008597
561.000000	0.008305
560.000000	0.008102
559.000000	0.007995
558.000000	0.007901
557.000000	0.007625
556.000000	0.007550
555.000000	0.007446
554.000000	0.007243
553.000000	0.007125
552.000000	0.006943
551.000000	0.006908
550.000000	0.006837
549.000000	0.006569
548.000000	0.006554
547.000000	0.006242
546.000000	0.006198
545.000000	0.006102
544.000000	0.006022
543.000000	0.006021
542.000000	0.005855
541.000000	0.005769
540.000000	0.005577
539.000000	0.005609
538.000000	0.005465
537.000000	0.005369
536.000000	0.005237
535.000000	0.005201
534.000000	0.004886
533.000000	0.004948
532.000000	0.004788
531.000000	0.004847
530.000000	0.004700
529.000000	0.004690
528.000000	0.004637
527.000000	0.004423
526.000000	0.004328
525.000000	0.004246
524.000000	0.004275
523.000000	0.004133
522.000000	0.004179
521.000000	0.004029
520.000000	0.003926
519.000000	0.003993
518.000000	0.003822
517.000000	0.003817
516.000000	0.003774
515.000000	0.003633
514.000000	0.003585
513.000000	0.003597
512.000000	0.003566
511.000000	0.003413
510.000000	0.003399
509.000000	0.003330
508.000000	0.003393
507.000000	0.003286
506.000000	0.003277
505.000000	0.003221
504.000000	0.003276
503.000000	0.003203
502.000000	0.003041
501.000000	0.003121
500.000000	0.003154
499.000000	0.002980
498.000000	0.003114
497.000000	0.002961
496.000000	0.003041
495.000000	0.002901
494.000000	0.002926
493.000000	0.002899
492.000000	0.002962
491.000000	0.002835
490.000000	0.002808
489.000000	0.002871
488.000000	0.002722
487.000000	0.002739
486.000000	0.002729
485.000000	0.002720
484.000000	0.002690
483.000000	0.002791
482.000000	0.002773
481.000000	0.002625
480.000000	0.002658
479.000000	0.002707
478.000000	0.002724
477.000000	0.002727
476.000000	0.002617
475.000000	0.002604
474.000000	0.002683
473.000000	0.002640
472.000000	0.002522
471.000000	0.002694
470.000000	0.002609
469.000000	0.002596
468.000000	0.002617
467.000000	0.002519
466.000000	0.002553
465.000000	0.002598
464.000000	0.002409
463.000000	0.002619
462.000000	0.002565
461.000000	0.002526
460.000000	0.002442
459.000000	0.002548
458.000000	0.002515
457.000000	0.002477
456.000000	0.002600
455.000000	0.002554
454.000000	0.002538
453.000000	0.002610
452.000000	0.002535
451.000000	0.002587
450.000000	0.002634
