PE UV       SUBTECH     SPECTRUM    ASCII       PEDS        4.00        
   -1
0.032M.Sample.Raw.asc
14/04/16
17:05:25.00
14/04/16
17:05:25.00
Studente LDss

450.000000
1
Lambda 25
COM
PerkinElmer UV WinLab 6.0.4.0738 / Lambda25 1.27

480
2
1
0
0
Both on
1
1
1
None
0
0
0
0
 
 
0
0
0
0
0
 
 
 
0
 
0
326
0
 
0
 
 
 
0
0
0
 
0
 
 
 
0
 
 
0
0
0
0
0
 
 
 
 
0
0


0
0
#HDR
-1
-1
#GR
nm
A
1.0
0.0
950.000000
-1.000000
501
8
0.395163
0.003540
#DATA
950.000000	0.305074
949.000000	0.306038
948.000000	0.306975
947.000000	0.307778
946.000000	0.308752
945.000000	0.309697
944.000000	0.310601
943.000000	0.311538
942.000000	0.312451
941.000000	0.313379
940.000000	0.314318
939.000000	0.315197
938.000000	0.316078
937.000000	0.316926
936.000000	0.317948
935.000000	0.318851
934.000000	0.319716
933.000000	0.320640
932.000000	0.321551
931.000000	0.322473
930.000000	0.323367
929.000000	0.324143
928.000000	0.325000
927.000000	0.325914
926.000000	0.326945
925.000000	0.327875
924.000000	0.328893
923.000000	0.329794
922.000000	0.330624
921.000000	0.331641
920.000000	0.332446
919.000000	0.333410
918.000000	0.334367
917.000000	0.335159
916.000000	0.336078
915.000000	0.337030
914.000000	0.337964
913.000000	0.338889
912.000000	0.339907
911.000000	0.340643
910.000000	0.341655
909.000000	0.342451
908.000000	0.343361
907.000000	0.344280
906.000000	0.345120
905.000000	0.346165
904.000000	0.346885
903.000000	0.347813
902.000000	0.348682
901.000000	0.349649
900.000000	0.350514
899.000000	0.351362
898.000000	0.352023
897.000000	0.353006
896.000000	0.353964
895.000000	0.354844
894.000000	0.355600
893.000000	0.356376
892.000000	0.357300
891.000000	0.358178
890.000000	0.359078
889.000000	0.359884
888.000000	0.360785
887.000000	0.361520
886.000000	0.362518
885.000000	0.363208
884.000000	0.364007
883.000000	0.364845
882.000000	0.365638
881.000000	0.366569
880.000000	0.367247
879.000000	0.368144
878.000000	0.368891
877.000000	0.369682
876.000000	0.370427
875.000000	0.371256
874.000000	0.371924
873.000000	0.372708
872.000000	0.373455
871.000000	0.374193
870.000000	0.374899
869.000000	0.375622
868.000000	0.376410
867.000000	0.377096
866.000000	0.377741
865.000000	0.378429
864.000000	0.379130
863.000000	0.379763
862.000000	0.380498
861.000000	0.380934
860.000000	0.381598
859.000000	0.382354
858.000000	0.382892
857.000000	0.383520
856.000000	0.384234
855.000000	0.384640
854.000000	0.385188
853.000000	0.385817
852.000000	0.386306
851.000000	0.386843
850.000000	0.387394
849.000000	0.387865
848.000000	0.388386
847.000000	0.388963
846.000000	0.389272
845.000000	0.389754
844.000000	0.390160
843.000000	0.390611
842.000000	0.391105
841.000000	0.391311
840.000000	0.391780
839.000000	0.392163
838.000000	0.392365
837.000000	0.392789
836.000000	0.392998
835.000000	0.393208
834.000000	0.393566
833.000000	0.393867
832.000000	0.394128
831.000000	0.394381
830.000000	0.394464
829.000000	0.394544
828.000000	0.394756
827.000000	0.394922
826.000000	0.394905
825.000000	0.395086
824.000000	0.395096
823.000000	0.395079
822.000000	0.395163
821.000000	0.394994
820.000000	0.394948
819.000000	0.395016
818.000000	0.394869
817.000000	0.394742
816.000000	0.394572
815.000000	0.394529
814.000000	0.394097
813.000000	0.393961
812.000000	0.393750
811.000000	0.393467
810.000000	0.393136
809.000000	0.392956
808.000000	0.392558
807.000000	0.392265
806.000000	0.391680
805.000000	0.391154
804.000000	0.390735
803.000000	0.390162
802.000000	0.389683
801.000000	0.389205
800.000000	0.388470
799.000000	0.387969
798.000000	0.387484
797.000000	0.386679
796.000000	0.386113
795.000000	0.385589
794.000000	0.384595
793.000000	0.384048
792.000000	0.383149
791.000000	0.382472
790.000000	0.381771
789.000000	0.380754
788.000000	0.379961
787.000000	0.379038
786.000000	0.378140
785.000000	0.377136
784.000000	0.376155
783.000000	0.375178
782.000000	0.374121
781.000000	0.373066
780.000000	0.371963
779.000000	0.370705
778.000000	0.369608
777.000000	0.368243
776.000000	0.366997
775.000000	0.365707
774.000000	0.364290
773.000000	0.362931
772.000000	0.361604
771.000000	0.360174
770.000000	0.358899
769.000000	0.357344
768.000000	0.355868
767.000000	0.354451
766.000000	0.352963
765.000000	0.351384
764.000000	0.349800
763.000000	0.348290
762.000000	0.346585
761.000000	0.344941
760.000000	0.343226
759.000000	0.341474
758.000000	0.339703
757.000000	0.337971
756.000000	0.336228
755.000000	0.334350
754.000000	0.332532
753.000000	0.330675
752.000000	0.328822
751.000000	0.326836
750.000000	0.325004
749.000000	0.323029
748.000000	0.320943
747.000000	0.318953
746.000000	0.316959
745.000000	0.314985
744.000000	0.312757
743.000000	0.310878
742.000000	0.308736
741.000000	0.306616
740.000000	0.304450
739.000000	0.302318
738.000000	0.300213
737.000000	0.298022
736.000000	0.295840
735.000000	0.293623
734.000000	0.291433
733.000000	0.289246
732.000000	0.286954
731.000000	0.284655
730.000000	0.282423
729.000000	0.280082
728.000000	0.277619
727.000000	0.275376
726.000000	0.272977
725.000000	0.270623
724.000000	0.268067
723.000000	0.265736
722.000000	0.263327
721.000000	0.260855
720.000000	0.258357
719.000000	0.256005
718.000000	0.253525
717.000000	0.250941
716.000000	0.248565
715.000000	0.246148
714.000000	0.243653
713.000000	0.241124
712.000000	0.238639
711.000000	0.236159
710.000000	0.233663
709.000000	0.231152
708.000000	0.228670
707.000000	0.226160
706.000000	0.223764
705.000000	0.221222
704.000000	0.218817
703.000000	0.216251
702.000000	0.213815
701.000000	0.211387
700.000000	0.208893
699.000000	0.206375
698.000000	0.203762
697.000000	0.201332
696.000000	0.198863
695.000000	0.196340
694.000000	0.193925
693.000000	0.191344
692.000000	0.189009
691.000000	0.186463
690.000000	0.183949
689.000000	0.181476
688.000000	0.178987
687.000000	0.176628
686.000000	0.174131
685.000000	0.171786
684.000000	0.169375
683.000000	0.166809
682.000000	0.164469
681.000000	0.162145
680.000000	0.159863
679.000000	0.157513
678.000000	0.155084
677.000000	0.152955
676.000000	0.150487
675.000000	0.148296
674.000000	0.146082
673.000000	0.143819
672.000000	0.141544
671.000000	0.139461
670.000000	0.137214
669.000000	0.135196
668.000000	0.132999
667.000000	0.130869
666.000000	0.128776
665.000000	0.126763
664.000000	0.124626
663.000000	0.122435
662.000000	0.120388
661.000000	0.118488
660.000000	0.116421
659.000000	0.114431
658.000000	0.112493
657.000000	0.110426
656.000000	0.108525
655.000000	0.106648
654.000000	0.104661
653.000000	0.102798
652.000000	0.100958
651.000000	0.099100
650.000000	0.097243
649.000000	0.095429
648.000000	0.093674
647.000000	0.091891
646.000000	0.090130
645.000000	0.088588
644.000000	0.086826
643.000000	0.085232
642.000000	0.083614
641.000000	0.082037
640.000000	0.080416
639.000000	0.078894
638.000000	0.077436
637.000000	0.075921
636.000000	0.074418
635.000000	0.072887
634.000000	0.071564
633.000000	0.070117
632.000000	0.068696
631.000000	0.067326
630.000000	0.066002
629.000000	0.064670
628.000000	0.063253
627.000000	0.061980
626.000000	0.060696
625.000000	0.059473
624.000000	0.058144
623.000000	0.057066
622.000000	0.055818
621.000000	0.054719
620.000000	0.053449
619.000000	0.052331
618.000000	0.051278
617.000000	0.050139
616.000000	0.049082
615.000000	0.048022
614.000000	0.047009
613.000000	0.045911
612.000000	0.044974
611.000000	0.043985
610.000000	0.043016
609.000000	0.042199
608.000000	0.041277
607.000000	0.040355
606.000000	0.039489
605.000000	0.038588
604.000000	0.037769
603.000000	0.036927
602.000000	0.036125
601.000000	0.035343
600.000000	0.034620
599.000000	0.033830
598.000000	0.033120
597.000000	0.032380
596.000000	0.031626
595.000000	0.030939
594.000000	0.030234
593.000000	0.029457
592.000000	0.028914
591.000000	0.028315
590.000000	0.027598
589.000000	0.027052
588.000000	0.026371
587.000000	0.025843
586.000000	0.025139
585.000000	0.024612
584.000000	0.024021
583.000000	0.023627
582.000000	0.023001
581.000000	0.022430
580.000000	0.021993
579.000000	0.021489
578.000000	0.020926
577.000000	0.020487
576.000000	0.019950
575.000000	0.019472
574.000000	0.019023
573.000000	0.018644
572.000000	0.018134
571.000000	0.017795
570.000000	0.017421
569.000000	0.017119
568.000000	0.016623
567.000000	0.016314
566.000000	0.015878
565.000000	0.015559
564.000000	0.015201
563.000000	0.014875
562.000000	0.014585
561.000000	0.014222
560.000000	0.013837
559.000000	0.013628
558.000000	0.013265
557.000000	0.012943
556.000000	0.012652
555.000000	0.012389
554.000000	0.012082
553.000000	0.011875
552.000000	0.011585
551.000000	0.011349
550.000000	0.011192
549.000000	0.010887
548.000000	0.010600
547.000000	0.010394
546.000000	0.010165
545.000000	0.009855
544.000000	0.009699
543.000000	0.009527
542.000000	0.009363
541.000000	0.009054
540.000000	0.008963
539.000000	0.008816
538.000000	0.008641
537.000000	0.008330
536.000000	0.008252
535.000000	0.008020
534.000000	0.007746
533.000000	0.007711
532.000000	0.007493
531.000000	0.007413
530.000000	0.007265
529.000000	0.007125
528.000000	0.006976
527.000000	0.006812
526.000000	0.006614
525.000000	0.006428
524.000000	0.006456
523.000000	0.006107
522.000000	0.006140
521.000000	0.005985
520.000000	0.005894
519.000000	0.005879
518.000000	0.005746
517.000000	0.005641
516.000000	0.005491
515.000000	0.005362
514.000000	0.005198
513.000000	0.005124
512.000000	0.005140
511.000000	0.005041
510.000000	0.004920
509.000000	0.004898
508.000000	0.004777
507.000000	0.004781
506.000000	0.004652
505.000000	0.004544
504.000000	0.004602
503.000000	0.004550
502.000000	0.004311
501.000000	0.004438
500.000000	0.004445
499.000000	0.004185
498.000000	0.004409
497.000000	0.004272
496.000000	0.004118
495.000000	0.004113
494.000000	0.004087
493.000000	0.004082
492.000000	0.004000
491.000000	0.003991
490.000000	0.003883
489.000000	0.003988
488.000000	0.003864
487.000000	0.003919
486.000000	0.003756
485.000000	0.003807
484.000000	0.003758
483.000000	0.003766
482.000000	0.003774
481.000000	0.003638
480.000000	0.003755
479.000000	0.003796
478.000000	0.003664
477.000000	0.003734
476.000000	0.003607
475.000000	0.003670
474.000000	0.003669
473.000000	0.003655
472.000000	0.003608
471.000000	0.003709
470.000000	0.003653
469.000000	0.003615
468.000000	0.003601
467.000000	0.003575
466.000000	0.003646
465.000000	0.003675
464.000000	0.003545
463.000000	0.003695
462.000000	0.003557
461.000000	0.003607
460.000000	0.003540
459.000000	0.003583
458.000000	0.003571
457.000000	0.003584
456.000000	0.003774
455.000000	0.003614
454.000000	0.003624
453.000000	0.003735
452.000000	0.003546
451.000000	0.003682
450.000000	0.003747
