PE UV       SUBTECH     SPECTRUM    ASCII       PEDS        4.00        
   -1
0.048M.Sample.Raw.asc
14/04/16
17:07:14.00
14/04/16
17:07:14.00
Studente LDss

450.000000
1
Lambda 25
COM
PerkinElmer UV WinLab 6.0.4.0738 / Lambda25 1.27

480
2
1
0
0
Both on
1
1
1
None
0
0
0
0
 
 
0
0
0
0
0
 
 
 
0
 
0
326
0
 
0
 
 
 
0
0
0
 
0
 
 
 
0
 
 
0
0
0
0
0
 
 
 
 
0
0


0
0
#HDR
-1
-1
#GR
nm
A
1.0
0.0
950.000000
-1.000000
501
8
0.591675
0.001310
#DATA
950.000000	0.457230
949.000000	0.458751
948.000000	0.460011
947.000000	0.461532
946.000000	0.462818
945.000000	0.464239
944.000000	0.465655
943.000000	0.466918
942.000000	0.468325
941.000000	0.469724
940.000000	0.471054
939.000000	0.472509
938.000000	0.473760
937.000000	0.475102
936.000000	0.476528
935.000000	0.477912
934.000000	0.479070
933.000000	0.480485
932.000000	0.481880
931.000000	0.483204
930.000000	0.484602
929.000000	0.485867
928.000000	0.487252
927.000000	0.488593
926.000000	0.489711
925.000000	0.491174
924.000000	0.492628
923.000000	0.494023
922.000000	0.495311
921.000000	0.496687
920.000000	0.497978
919.000000	0.499453
918.000000	0.500969
917.000000	0.502245
916.000000	0.503612
915.000000	0.505080
914.000000	0.506470
913.000000	0.507769
912.000000	0.509142
911.000000	0.510569
910.000000	0.511971
909.000000	0.513147
908.000000	0.514584
907.000000	0.515932
906.000000	0.517233
905.000000	0.518581
904.000000	0.519734
903.000000	0.521260
902.000000	0.522401
901.000000	0.523842
900.000000	0.525260
899.000000	0.526504
898.000000	0.527584
897.000000	0.529014
896.000000	0.530395
895.000000	0.531683
894.000000	0.532955
893.000000	0.534106
892.000000	0.535403
891.000000	0.536820
890.000000	0.538029
889.000000	0.539299
888.000000	0.540618
887.000000	0.541838
886.000000	0.543044
885.000000	0.544309
884.000000	0.545565
883.000000	0.546799
882.000000	0.547985
881.000000	0.549124
880.000000	0.550471
879.000000	0.551562
878.000000	0.552755
877.000000	0.553850
876.000000	0.555063
875.000000	0.556327
874.000000	0.557375
873.000000	0.558434
872.000000	0.559639
871.000000	0.560774
870.000000	0.561835
869.000000	0.562829
868.000000	0.564079
867.000000	0.564995
866.000000	0.566048
865.000000	0.567047
864.000000	0.568065
863.000000	0.569094
862.000000	0.569994
861.000000	0.570849
860.000000	0.571839
859.000000	0.572810
858.000000	0.573764
857.000000	0.574744
856.000000	0.575559
855.000000	0.576395
854.000000	0.577234
853.000000	0.578028
852.000000	0.578987
851.000000	0.579612
850.000000	0.580533
849.000000	0.581117
848.000000	0.581858
847.000000	0.582528
846.000000	0.583317
845.000000	0.583800
844.000000	0.584606
843.000000	0.585131
842.000000	0.585771
841.000000	0.586267
840.000000	0.587062
839.000000	0.587445
838.000000	0.587854
837.000000	0.588342
836.000000	0.588716
835.000000	0.589212
834.000000	0.589555
833.000000	0.589928
832.000000	0.590363
831.000000	0.590579
830.000000	0.590783
829.000000	0.591029
828.000000	0.591184
827.000000	0.591374
826.000000	0.591536
825.000000	0.591675
824.000000	0.591641
823.000000	0.591661
822.000000	0.591600
821.000000	0.591482
820.000000	0.591502
819.000000	0.591305
818.000000	0.591253
817.000000	0.591146
816.000000	0.590830
815.000000	0.590499
814.000000	0.590351
813.000000	0.589846
812.000000	0.589453
811.000000	0.589082
810.000000	0.588600
809.000000	0.588204
808.000000	0.587734
807.000000	0.587140
806.000000	0.586443
805.000000	0.585547
804.000000	0.584904
803.000000	0.584190
802.000000	0.583262
801.000000	0.582642
800.000000	0.581732
799.000000	0.580796
798.000000	0.579908
797.000000	0.578911
796.000000	0.577910
795.000000	0.577127
794.000000	0.575551
793.000000	0.574544
792.000000	0.573518
791.000000	0.572261
790.000000	0.570963
789.000000	0.569852
788.000000	0.568418
787.000000	0.567102
786.000000	0.565648
785.000000	0.564348
784.000000	0.562754
783.000000	0.561267
782.000000	0.559789
781.000000	0.558055
780.000000	0.556464
779.000000	0.554649
778.000000	0.552975
777.000000	0.551125
776.000000	0.549120
775.000000	0.547170
774.000000	0.544992
773.000000	0.542846
772.000000	0.540858
771.000000	0.538786
770.000000	0.536744
769.000000	0.534510
768.000000	0.532301
767.000000	0.530115
766.000000	0.527863
765.000000	0.525413
764.000000	0.523092
763.000000	0.520752
762.000000	0.518273
761.000000	0.515694
760.000000	0.513301
759.000000	0.510563
758.000000	0.508019
757.000000	0.505356
756.000000	0.502778
755.000000	0.499839
754.000000	0.497122
753.000000	0.494308
752.000000	0.491419
751.000000	0.488614
750.000000	0.485746
749.000000	0.482742
748.000000	0.479715
747.000000	0.476748
746.000000	0.473654
745.000000	0.470692
744.000000	0.467449
743.000000	0.464379
742.000000	0.461307
741.000000	0.458066
740.000000	0.454810
739.000000	0.451619
738.000000	0.448406
737.000000	0.445072
736.000000	0.441855
735.000000	0.438412
734.000000	0.435174
733.000000	0.431882
732.000000	0.428383
731.000000	0.424962
730.000000	0.421452
729.000000	0.417925
728.000000	0.414266
727.000000	0.410838
726.000000	0.407226
725.000000	0.403793
724.000000	0.399957
723.000000	0.396431
722.000000	0.392771
721.000000	0.389103
720.000000	0.385318
719.000000	0.381727
718.000000	0.378044
717.000000	0.374303
716.000000	0.370554
715.000000	0.366984
714.000000	0.363177
713.000000	0.359379
712.000000	0.355721
711.000000	0.351973
710.000000	0.348173
709.000000	0.344448
708.000000	0.340663
707.000000	0.336916
706.000000	0.333245
705.000000	0.329440
704.000000	0.325858
703.000000	0.322128
702.000000	0.318326
701.000000	0.314590
700.000000	0.310859
699.000000	0.307164
698.000000	0.303408
697.000000	0.299703
696.000000	0.295872
695.000000	0.292184
694.000000	0.288496
693.000000	0.284604
692.000000	0.281079
691.000000	0.277278
690.000000	0.273500
689.000000	0.269852
688.000000	0.266105
687.000000	0.262393
686.000000	0.258832
685.000000	0.255191
684.000000	0.251453
683.000000	0.247708
682.000000	0.244051
681.000000	0.240689
680.000000	0.237191
679.000000	0.233656
678.000000	0.230060
677.000000	0.226685
676.000000	0.223166
675.000000	0.219838
674.000000	0.216468
673.000000	0.213063
672.000000	0.209832
671.000000	0.206499
670.000000	0.203165
669.000000	0.200237
668.000000	0.196988
667.000000	0.193675
666.000000	0.190584
665.000000	0.187473
664.000000	0.184250
663.000000	0.181090
662.000000	0.178100
661.000000	0.175088
660.000000	0.172022
659.000000	0.168991
658.000000	0.166012
657.000000	0.162919
656.000000	0.160158
655.000000	0.157347
654.000000	0.154404
653.000000	0.151635
652.000000	0.148935
651.000000	0.146228
650.000000	0.143448
649.000000	0.140700
648.000000	0.138083
647.000000	0.135505
646.000000	0.132882
645.000000	0.130417
644.000000	0.127726
643.000000	0.125364
642.000000	0.122817
641.000000	0.120408
640.000000	0.118154
639.000000	0.115699
638.000000	0.113478
637.000000	0.111283
636.000000	0.109056
635.000000	0.106768
634.000000	0.104699
633.000000	0.102500
632.000000	0.100421
631.000000	0.098433
630.000000	0.096295
629.000000	0.094303
628.000000	0.092356
627.000000	0.090360
626.000000	0.088406
625.000000	0.086537
624.000000	0.084680
623.000000	0.082839
622.000000	0.081060
621.000000	0.079294
620.000000	0.077514
619.000000	0.075897
618.000000	0.074190
617.000000	0.072475
616.000000	0.071011
615.000000	0.069286
614.000000	0.067826
613.000000	0.066216
612.000000	0.064790
611.000000	0.063248
610.000000	0.061892
609.000000	0.060574
608.000000	0.059121
607.000000	0.057829
606.000000	0.056431
605.000000	0.055164
604.000000	0.053963
603.000000	0.052672
602.000000	0.051421
601.000000	0.050247
600.000000	0.049135
599.000000	0.047936
598.000000	0.046869
597.000000	0.045778
596.000000	0.044596
595.000000	0.043603
594.000000	0.042572
593.000000	0.041457
592.000000	0.040602
591.000000	0.039611
590.000000	0.038617
589.000000	0.037661
588.000000	0.036726
587.000000	0.035834
586.000000	0.034911
585.000000	0.034155
584.000000	0.033296
583.000000	0.032486
582.000000	0.031612
581.000000	0.030882
580.000000	0.030063
579.000000	0.029338
578.000000	0.028582
577.000000	0.027925
576.000000	0.027140
575.000000	0.026513
574.000000	0.025752
573.000000	0.025202
572.000000	0.024492
571.000000	0.023979
570.000000	0.023350
569.000000	0.022809
568.000000	0.022208
567.000000	0.021619
566.000000	0.020985
565.000000	0.020573
564.000000	0.020070
563.000000	0.019538
562.000000	0.019083
561.000000	0.018464
560.000000	0.017987
559.000000	0.017586
558.000000	0.017025
557.000000	0.016519
556.000000	0.016216
555.000000	0.015743
554.000000	0.015315
553.000000	0.014934
552.000000	0.014505
551.000000	0.014060
550.000000	0.013800
549.000000	0.013335
548.000000	0.012998
547.000000	0.012598
546.000000	0.012261
545.000000	0.011871
544.000000	0.011682
543.000000	0.011343
542.000000	0.011073
541.000000	0.010736
540.000000	0.010418
539.000000	0.010183
538.000000	0.009836
537.000000	0.009572
536.000000	0.009315
535.000000	0.009117
534.000000	0.008647
533.000000	0.008556
532.000000	0.008237
531.000000	0.008031
530.000000	0.007788
529.000000	0.007557
528.000000	0.007438
527.000000	0.007140
526.000000	0.006821
525.000000	0.006656
524.000000	0.006478
523.000000	0.006279
522.000000	0.006075
521.000000	0.005894
520.000000	0.005718
519.000000	0.005596
518.000000	0.005360
517.000000	0.005208
516.000000	0.005045
515.000000	0.004844
514.000000	0.004731
513.000000	0.004662
512.000000	0.004417
511.000000	0.004245
510.000000	0.004180
509.000000	0.004111
508.000000	0.003995
507.000000	0.003845
506.000000	0.003802
505.000000	0.003618
504.000000	0.003599
503.000000	0.003458
502.000000	0.003377
501.000000	0.003278
500.000000	0.003158
499.000000	0.003018
498.000000	0.003050
497.000000	0.002906
496.000000	0.002854
495.000000	0.002680
494.000000	0.002628
493.000000	0.002577
492.000000	0.002572
491.000000	0.002432
490.000000	0.002397
489.000000	0.002439
488.000000	0.002248
487.000000	0.002260
486.000000	0.002196
485.000000	0.002060
484.000000	0.002220
483.000000	0.002050
482.000000	0.002058
481.000000	0.001872
480.000000	0.001808
479.000000	0.001875
478.000000	0.001857
477.000000	0.001832
476.000000	0.001747
475.000000	0.001793
474.000000	0.001763
473.000000	0.001712
472.000000	0.001712
471.000000	0.001770
470.000000	0.001610
469.000000	0.001660
468.000000	0.001584
467.000000	0.001580
466.000000	0.001638
465.000000	0.001558
464.000000	0.001386
463.000000	0.001638
462.000000	0.001503
461.000000	0.001583
460.000000	0.001394
459.000000	0.001310
458.000000	0.001521
457.000000	0.001403
456.000000	0.001525
455.000000	0.001483
454.000000	0.001496
453.000000	0.001451
452.000000	0.001443
451.000000	0.001502
450.000000	0.001502
