PE UV       SUBTECH     SPECTRUM    ASCII       PEDS        4.00        
   -1
0.064M.Sample.Raw.asc
14/04/16
17:09:03.00
14/04/16
17:09:03.00
Studente LDss

450.000000
1
Lambda 25
COM
PerkinElmer UV WinLab 6.0.4.0738 / Lambda25 1.27

480
2
1
0
0
Both on
1
1
1
None
0
0
0
0
 
 
0
0
0
0
0
 
 
 
0
 
0
326
0
 
0
 
 
 
0
0
0
 
0
 
 
 
0
 
 
0
0
0
0
0
 
 
 
 
0
0


0
0
#HDR
-1
-1
#GR
nm
A
1.0
0.0
950.000000
-1.000000
501
8
0.727408
0.003614
#DATA
950.000000	0.562954
949.000000	0.564621
948.000000	0.566339
947.000000	0.567998
946.000000	0.569689
945.000000	0.571479
944.000000	0.573144
943.000000	0.574850
942.000000	0.576445
941.000000	0.578151
940.000000	0.579844
939.000000	0.581541
938.000000	0.583066
937.000000	0.584736
936.000000	0.586495
935.000000	0.588070
934.000000	0.589766
933.000000	0.591364
932.000000	0.593009
931.000000	0.594608
930.000000	0.596200
929.000000	0.597829
928.000000	0.599558
927.000000	0.601109
926.000000	0.602735
925.000000	0.604458
924.000000	0.606311
923.000000	0.607921
922.000000	0.609728
921.000000	0.611404
920.000000	0.612826
919.000000	0.614613
918.000000	0.616384
917.000000	0.617996
916.000000	0.619629
915.000000	0.621498
914.000000	0.622998
913.000000	0.624699
912.000000	0.626351
911.000000	0.628182
910.000000	0.629872
909.000000	0.631213
908.000000	0.633015
907.000000	0.634717
906.000000	0.636257
905.000000	0.637942
904.000000	0.639409
903.000000	0.641131
902.000000	0.642770
901.000000	0.644367
900.000000	0.646027
899.000000	0.647730
898.000000	0.649111
897.000000	0.650952
896.000000	0.652444
895.000000	0.653933
894.000000	0.655621
893.000000	0.657295
892.000000	0.658588
891.000000	0.660315
890.000000	0.661883
889.000000	0.663470
888.000000	0.665025
887.000000	0.666548
886.000000	0.667992
885.000000	0.669548
884.000000	0.671143
883.000000	0.672544
882.000000	0.674081
881.000000	0.675564
880.000000	0.677048
879.000000	0.678491
878.000000	0.679860
877.000000	0.681323
876.000000	0.682772
875.000000	0.684298
874.000000	0.685444
873.000000	0.686958
872.000000	0.688312
871.000000	0.689816
870.000000	0.690909
869.000000	0.692199
868.000000	0.693611
867.000000	0.694909
866.000000	0.696025
865.000000	0.697444
864.000000	0.698641
863.000000	0.699760
862.000000	0.701128
861.000000	0.702228
860.000000	0.703226
859.000000	0.704509
858.000000	0.705512
857.000000	0.706777
856.000000	0.707855
855.000000	0.708817
854.000000	0.709916
853.000000	0.710616
852.000000	0.711992
851.000000	0.712680
850.000000	0.713923
849.000000	0.714647
848.000000	0.715453
847.000000	0.716495
846.000000	0.717304
845.000000	0.717912
844.000000	0.718848
843.000000	0.719596
842.000000	0.720283
841.000000	0.721026
840.000000	0.721785
839.000000	0.722315
838.000000	0.722934
837.000000	0.723521
836.000000	0.723924
835.000000	0.724387
834.000000	0.724884
833.000000	0.725280
832.000000	0.725736
831.000000	0.726187
830.000000	0.726279
829.000000	0.726632
828.000000	0.726931
827.000000	0.727172
826.000000	0.727189
825.000000	0.727406
824.000000	0.727394
823.000000	0.727408
822.000000	0.727348
821.000000	0.727132
820.000000	0.727230
819.000000	0.727048
818.000000	0.726989
817.000000	0.726670
816.000000	0.726283
815.000000	0.726114
814.000000	0.725791
813.000000	0.725131
812.000000	0.724791
811.000000	0.724127
810.000000	0.723649
809.000000	0.723174
808.000000	0.722326
807.000000	0.721789
806.000000	0.720857
805.000000	0.719989
804.000000	0.719001
803.000000	0.718251
802.000000	0.717246
801.000000	0.716267
800.000000	0.715288
799.000000	0.713969
798.000000	0.712938
797.000000	0.711735
796.000000	0.710579
795.000000	0.709423
794.000000	0.707792
793.000000	0.706502
792.000000	0.705173
791.000000	0.703756
790.000000	0.702156
789.000000	0.700537
788.000000	0.699051
787.000000	0.697383
786.000000	0.695653
785.000000	0.693912
784.000000	0.692153
783.000000	0.690415
782.000000	0.688422
781.000000	0.686291
780.000000	0.684415
779.000000	0.682186
778.000000	0.680066
777.000000	0.677701
776.000000	0.675357
775.000000	0.672833
774.000000	0.670069
773.000000	0.667515
772.000000	0.665134
771.000000	0.662472
770.000000	0.659910
769.000000	0.657320
768.000000	0.654522
767.000000	0.651815
766.000000	0.649084
765.000000	0.646319
764.000000	0.643229
763.000000	0.640424
762.000000	0.637373
761.000000	0.634347
760.000000	0.631213
759.000000	0.628004
758.000000	0.624838
757.000000	0.621512
756.000000	0.618305
755.000000	0.614731
754.000000	0.611483
753.000000	0.607964
752.000000	0.604502
751.000000	0.601001
750.000000	0.597452
749.000000	0.593774
748.000000	0.590187
747.000000	0.586443
746.000000	0.582786
745.000000	0.579030
744.000000	0.575146
743.000000	0.571419
742.000000	0.567507
741.000000	0.563534
740.000000	0.559582
739.000000	0.555654
738.000000	0.551610
737.000000	0.547626
736.000000	0.543628
735.000000	0.539658
734.000000	0.535481
733.000000	0.531427
732.000000	0.527186
731.000000	0.522980
730.000000	0.518767
729.000000	0.514433
728.000000	0.510078
727.000000	0.505710
726.000000	0.501289
725.000000	0.496979
724.000000	0.492475
723.000000	0.488047
722.000000	0.483521
721.000000	0.479121
720.000000	0.474484
719.000000	0.470082
718.000000	0.465485
717.000000	0.460715
716.000000	0.456287
715.000000	0.451734
714.000000	0.447115
713.000000	0.442561
712.000000	0.437954
711.000000	0.433437
710.000000	0.428875
709.000000	0.424132
708.000000	0.419616
707.000000	0.414973
706.000000	0.410306
705.000000	0.405783
704.000000	0.401252
703.000000	0.396664
702.000000	0.392142
701.000000	0.387583
700.000000	0.382934
699.000000	0.378359
698.000000	0.373791
697.000000	0.369309
696.000000	0.364489
695.000000	0.360031
694.000000	0.355449
693.000000	0.350842
692.000000	0.346443
691.000000	0.341755
690.000000	0.337133
689.000000	0.332639
688.000000	0.328122
687.000000	0.323567
686.000000	0.319109
685.000000	0.314636
684.000000	0.310099
683.000000	0.305628
682.000000	0.301155
681.000000	0.296846
680.000000	0.292647
679.000000	0.288283
678.000000	0.283871
677.000000	0.279661
676.000000	0.275386
675.000000	0.271127
674.000000	0.267099
673.000000	0.262975
672.000000	0.258910
671.000000	0.254937
670.000000	0.250849
669.000000	0.247106
668.000000	0.243079
667.000000	0.239087
666.000000	0.235372
665.000000	0.231473
664.000000	0.227608
663.000000	0.223809
662.000000	0.219982
661.000000	0.216296
660.000000	0.212570
659.000000	0.208822
658.000000	0.205148
657.000000	0.201528
656.000000	0.197995
655.000000	0.194466
654.000000	0.190926
653.000000	0.187455
652.000000	0.184107
651.000000	0.180891
650.000000	0.177412
649.000000	0.174091
648.000000	0.170848
647.000000	0.167734
646.000000	0.164510
645.000000	0.161385
644.000000	0.158311
643.000000	0.155312
642.000000	0.152286
641.000000	0.149316
640.000000	0.146510
639.000000	0.143687
638.000000	0.140730
637.000000	0.138034
636.000000	0.135254
635.000000	0.132614
634.000000	0.129986
633.000000	0.127247
632.000000	0.124769
631.000000	0.122161
630.000000	0.119694
629.000000	0.117222
628.000000	0.114805
627.000000	0.112387
626.000000	0.109936
625.000000	0.107712
624.000000	0.105389
623.000000	0.103106
622.000000	0.100909
621.000000	0.098749
620.000000	0.096661
619.000000	0.094627
618.000000	0.092577
617.000000	0.090537
616.000000	0.088630
615.000000	0.086530
614.000000	0.084708
613.000000	0.082730
612.000000	0.081024
611.000000	0.079138
610.000000	0.077507
609.000000	0.075731
608.000000	0.074075
607.000000	0.072529
606.000000	0.070776
605.000000	0.069254
604.000000	0.067721
603.000000	0.066173
602.000000	0.064640
601.000000	0.063190
600.000000	0.061844
599.000000	0.060382
598.000000	0.059039
597.000000	0.057704
596.000000	0.056331
595.000000	0.054976
594.000000	0.053765
593.000000	0.052480
592.000000	0.051286
591.000000	0.050147
590.000000	0.048892
589.000000	0.047806
588.000000	0.046651
587.000000	0.045561
586.000000	0.044460
585.000000	0.043503
584.000000	0.042383
583.000000	0.041434
582.000000	0.040453
581.000000	0.039406
580.000000	0.038501
579.000000	0.037712
578.000000	0.036654
577.000000	0.035777
576.000000	0.034944
575.000000	0.034120
574.000000	0.033233
573.000000	0.032489
572.000000	0.031630
571.000000	0.031062
570.000000	0.030184
569.000000	0.029567
568.000000	0.028864
567.000000	0.028171
566.000000	0.027456
565.000000	0.026835
564.000000	0.026200
563.000000	0.025584
562.000000	0.025038
561.000000	0.024333
560.000000	0.023765
559.000000	0.023147
558.000000	0.022558
557.000000	0.021934
556.000000	0.021403
555.000000	0.020929
554.000000	0.020385
553.000000	0.019869
552.000000	0.019408
551.000000	0.018941
550.000000	0.018538
549.000000	0.017992
548.000000	0.017602
547.000000	0.017197
546.000000	0.016653
545.000000	0.016258
544.000000	0.015955
543.000000	0.015541
542.000000	0.015135
541.000000	0.014795
540.000000	0.014441
539.000000	0.014149
538.000000	0.013790
537.000000	0.013448
536.000000	0.013073
535.000000	0.012714
534.000000	0.012296
533.000000	0.012185
532.000000	0.011706
531.000000	0.011462
530.000000	0.011277
529.000000	0.010973
528.000000	0.010704
527.000000	0.010287
526.000000	0.010156
525.000000	0.009813
524.000000	0.009666
523.000000	0.009341
522.000000	0.009217
521.000000	0.008930
520.000000	0.008795
519.000000	0.008598
518.000000	0.008369
517.000000	0.008164
516.000000	0.007956
515.000000	0.007633
514.000000	0.007467
513.000000	0.007397
512.000000	0.007352
511.000000	0.007115
510.000000	0.006881
509.000000	0.006699
508.000000	0.006659
507.000000	0.006512
506.000000	0.006356
505.000000	0.006243
504.000000	0.006164
503.000000	0.006018
502.000000	0.005799
501.000000	0.005789
500.000000	0.005688
499.000000	0.005565
498.000000	0.005493
497.000000	0.005382
496.000000	0.005317
495.000000	0.005184
494.000000	0.005033
493.000000	0.004973
492.000000	0.004924
491.000000	0.004783
490.000000	0.004735
489.000000	0.004780
488.000000	0.004630
487.000000	0.004634
486.000000	0.004577
485.000000	0.004491
484.000000	0.004464
483.000000	0.004407
482.000000	0.004249
481.000000	0.004291
480.000000	0.004196
479.000000	0.004199
478.000000	0.004122
477.000000	0.004184
476.000000	0.004039
475.000000	0.004043
474.000000	0.003953
473.000000	0.003947
472.000000	0.004006
471.000000	0.003891
470.000000	0.003924
469.000000	0.003792
468.000000	0.003910
467.000000	0.003744
466.000000	0.003748
465.000000	0.003853
464.000000	0.003659
463.000000	0.003835
462.000000	0.003683
461.000000	0.003734
460.000000	0.003671
459.000000	0.003650
458.000000	0.003668
457.000000	0.003668
456.000000	0.003677
455.000000	0.003614
454.000000	0.003620
453.000000	0.003633
452.000000	0.003643
451.000000	0.003665
450.000000	0.003785
