PE UV       SUBTECH     SPECTRUM    ASCII       PEDS        4.00        
   -1
acqua.Sample.Raw.asc
14/04/16
17:01:25.00
14/04/16
17:01:25.00
Studente LDss

450.000000
1
Lambda 25
COM
PerkinElmer UV WinLab 6.0.4.0738 / Lambda25 1.27

480
2
1
0
0
Both on
1
1
1
None
0
0
0
0
 
 
0
0
0
0
0
 
 
 
0
 
0
326
0
 
0
 
 
 
0
0
0
 
0
 
 
 
0
 
 
0
0
0
0
0
 
 
 
 
0
0


0
0
#HDR
-1
-1
#GR
nm
A
1.0
0.0
950.000000
-1.000000
501
8
0.001266
-0.000694
#DATA
950.000000	-0.000424
949.000000	-0.000345
948.000000	-0.000498
947.000000	-0.000497
946.000000	-0.000442
945.000000	-0.000586
944.000000	-0.000491
943.000000	-0.000626
942.000000	-0.000526
941.000000	-0.000489
940.000000	-0.000443
939.000000	-0.000431
938.000000	-0.000455
937.000000	-0.000557
936.000000	-0.000458
935.000000	-0.000532
934.000000	-0.000519
933.000000	-0.000523
932.000000	-0.000511
931.000000	-0.000503
930.000000	-0.000527
929.000000	-0.000609
928.000000	-0.000609
927.000000	-0.000694
926.000000	-0.000694
925.000000	-0.000658
924.000000	-0.000556
923.000000	-0.000458
922.000000	-0.000511
921.000000	-0.000401
920.000000	-0.000519
919.000000	-0.000454
918.000000	-0.000507
917.000000	-0.000446
916.000000	-0.000524
915.000000	-0.000410
914.000000	-0.000430
913.000000	-0.000373
912.000000	-0.000328
911.000000	-0.000348
910.000000	-0.000365
909.000000	-0.000385
908.000000	-0.000340
907.000000	-0.000344
906.000000	-0.000364
905.000000	-0.000286
904.000000	-0.000466
903.000000	-0.000310
902.000000	-0.000371
901.000000	-0.000310
900.000000	-0.000269
899.000000	-0.000329
898.000000	-0.000561
897.000000	-0.000394
896.000000	-0.000312
895.000000	-0.000361
894.000000	-0.000372
893.000000	-0.000368
892.000000	-0.000396
891.000000	-0.000242
890.000000	-0.000355
889.000000	-0.000335
888.000000	-0.000278
887.000000	-0.000310
886.000000	-0.000362
885.000000	-0.000249
884.000000	-0.000289
883.000000	-0.000345
882.000000	-0.000293
881.000000	-0.000280
880.000000	-0.000344
879.000000	-0.000228
878.000000	-0.000328
877.000000	-0.000248
876.000000	-0.000200
875.000000	-0.000164
874.000000	-0.000239
873.000000	-0.000243
872.000000	-0.000247
871.000000	-0.000187
870.000000	-0.000199
869.000000	-0.000227
868.000000	-0.000064
867.000000	-0.000143
866.000000	-0.000214
865.000000	-0.000135
864.000000	-0.000099
863.000000	-0.000083
862.000000	-0.000048
861.000000	-0.000210
860.000000	-0.000202
859.000000	-0.000028
858.000000	-0.000103
857.000000	-0.000059
856.000000	-0.000020
855.000000	0.000012
854.000000	-0.000063
853.000000	-0.000040
852.000000	-0.000016
851.000000	-0.000107
850.000000	-0.000040
849.000000	-0.000020
848.000000	-0.000067
847.000000	-0.000008
846.000000	-0.000032
845.000000	0.000036
844.000000	0.000091
843.000000	0.000020
842.000000	-0.000047
841.000000	0.000040
840.000000	0.000067
839.000000	-0.000024
838.000000	0.000063
837.000000	0.000158
836.000000	0.000095
835.000000	0.000024
834.000000	0.000194
833.000000	0.000131
832.000000	0.000285
831.000000	0.000269
830.000000	0.000154
829.000000	0.000329
828.000000	0.000269
827.000000	0.000277
826.000000	0.000274
825.000000	0.000345
824.000000	0.000337
823.000000	0.000365
822.000000	0.000377
821.000000	0.000290
820.000000	0.000278
819.000000	0.000366
818.000000	0.000366
817.000000	0.000426
816.000000	0.000410
815.000000	0.000342
814.000000	0.000430
813.000000	0.000434
812.000000	0.000486
811.000000	0.000455
810.000000	0.000451
809.000000	0.000535
808.000000	0.000507
807.000000	0.000484
806.000000	0.000448
805.000000	0.000408
804.000000	0.000476
803.000000	0.000417
802.000000	0.000381
801.000000	0.000473
800.000000	0.000373
799.000000	0.000430
798.000000	0.000390
797.000000	0.000454
796.000000	0.000462
795.000000	0.000543
794.000000	0.000378
793.000000	0.000539
792.000000	0.000508
791.000000	0.000528
790.000000	0.000484
789.000000	0.000528
788.000000	0.000476
787.000000	0.000492
786.000000	0.000569
785.000000	0.000541
784.000000	0.000610
783.000000	0.000566
782.000000	0.000526
781.000000	0.000498
780.000000	0.000636
779.000000	0.000523
778.000000	0.000580
777.000000	0.000612
776.000000	0.000532
775.000000	0.000597
774.000000	0.000564
773.000000	0.000471
772.000000	0.000508
771.000000	0.000598
770.000000	0.000573
769.000000	0.000582
768.000000	0.000570
767.000000	0.000603
766.000000	0.000631
765.000000	0.000607
764.000000	0.000453
763.000000	0.000649
762.000000	0.000522
761.000000	0.000531
760.000000	0.000617
759.000000	0.000531
758.000000	0.000584
757.000000	0.000576
756.000000	0.000691
755.000000	0.000491
754.000000	0.000589
753.000000	0.000586
752.000000	0.000524
751.000000	0.000541
750.000000	0.000590
749.000000	0.000521
748.000000	0.000632
747.000000	0.000578
746.000000	0.000620
745.000000	0.000644
744.000000	0.000559
743.000000	0.000608
742.000000	0.000530
741.000000	0.000551
740.000000	0.000551
739.000000	0.000477
738.000000	0.000630
737.000000	0.000519
736.000000	0.000601
735.000000	0.000535
734.000000	0.000536
733.000000	0.000597
732.000000	0.000548
731.000000	0.000536
730.000000	0.000668
729.000000	0.000520
728.000000	0.000483
727.000000	0.000603
726.000000	0.000533
725.000000	0.000624
724.000000	0.000545
723.000000	0.000471
722.000000	0.000500
721.000000	0.000628
720.000000	0.000492
719.000000	0.000591
718.000000	0.000625
717.000000	0.000546
716.000000	0.000633
715.000000	0.000646
714.000000	0.000576
713.000000	0.000505
712.000000	0.000514
711.000000	0.000547
710.000000	0.000560
709.000000	0.000551
708.000000	0.000568
707.000000	0.000618
706.000000	0.000610
705.000000	0.000527
704.000000	0.000660
703.000000	0.000506
702.000000	0.000511
701.000000	0.000644
700.000000	0.000586
699.000000	0.000553
698.000000	0.000607
697.000000	0.000694
696.000000	0.000611
695.000000	0.000640
694.000000	0.000620
693.000000	0.000503
692.000000	0.000678
691.000000	0.000699
690.000000	0.000616
689.000000	0.000616
688.000000	0.000566
687.000000	0.000654
686.000000	0.000654
685.000000	0.000567
684.000000	0.000667
683.000000	0.000595
682.000000	0.000562
681.000000	0.000671
680.000000	0.000604
679.000000	0.000583
678.000000	0.000679
677.000000	0.000696
676.000000	0.000646
675.000000	0.000755
674.000000	0.000676
673.000000	0.000755
672.000000	0.000743
671.000000	0.000718
670.000000	0.000680
669.000000	0.000722
668.000000	0.000764
667.000000	0.000651
666.000000	0.000756
665.000000	0.000756
664.000000	0.000765
663.000000	0.000673
662.000000	0.000677
661.000000	0.000752
660.000000	0.000744
659.000000	0.000744
658.000000	0.000685
657.000000	0.000773
656.000000	0.000719
655.000000	0.000819
654.000000	0.000824
653.000000	0.000853
652.000000	0.000832
651.000000	0.000753
650.000000	0.000795
649.000000	0.000686
648.000000	0.000724
647.000000	0.000724
646.000000	0.000787
645.000000	0.000770
644.000000	0.000812
643.000000	0.000849
642.000000	0.000829
641.000000	0.000728
640.000000	0.000799
639.000000	0.000766
638.000000	0.000774
637.000000	0.000804
636.000000	0.000724
635.000000	0.000678
634.000000	0.000867
633.000000	0.000812
632.000000	0.000770
631.000000	0.000808
630.000000	0.000800
629.000000	0.000791
628.000000	0.000854
627.000000	0.000796
626.000000	0.000846
625.000000	0.000770
624.000000	0.000825
623.000000	0.000866
622.000000	0.000791
621.000000	0.000854
620.000000	0.000791
619.000000	0.000812
618.000000	0.000891
617.000000	0.000820
616.000000	0.000987
615.000000	0.000770
614.000000	0.000803
613.000000	0.000815
612.000000	0.000811
611.000000	0.000773
610.000000	0.000849
609.000000	0.000932
608.000000	0.000869
607.000000	0.000840
606.000000	0.000827
605.000000	0.000948
604.000000	0.000873
603.000000	0.000864
602.000000	0.000822
601.000000	0.000931
600.000000	0.000947
599.000000	0.000918
598.000000	0.000964
597.000000	0.000984
596.000000	0.000905
595.000000	0.000988
594.000000	0.001013
593.000000	0.000925
592.000000	0.000929
591.000000	0.001017
590.000000	0.000938
589.000000	0.000996
588.000000	0.001009
587.000000	0.001026
586.000000	0.000959
585.000000	0.000993
584.000000	0.000990
583.000000	0.001007
582.000000	0.001012
581.000000	0.000967
580.000000	0.000989
579.000000	0.001112
578.000000	0.000991
577.000000	0.000992
576.000000	0.000926
575.000000	0.000919
574.000000	0.000925
573.000000	0.000930
572.000000	0.000957
571.000000	0.000894
570.000000	0.000959
569.000000	0.001024
568.000000	0.000973
567.000000	0.000970
566.000000	0.001022
565.000000	0.000959
564.000000	0.001083
563.000000	0.001028
562.000000	0.001033
561.000000	0.000990
560.000000	0.001008
559.000000	0.001046
558.000000	0.000948
557.000000	0.000923
556.000000	0.000983
555.000000	0.000923
554.000000	0.000974
553.000000	0.000940
552.000000	0.001047
551.000000	0.000931
550.000000	0.001115
549.000000	0.000948
548.000000	0.001025
547.000000	0.001080
546.000000	0.000999
545.000000	0.000986
544.000000	0.000977
543.000000	0.001016
542.000000	0.001037
541.000000	0.000985
540.000000	0.001015
539.000000	0.001066
538.000000	0.001044
537.000000	0.001061
536.000000	0.000915
535.000000	0.000949
534.000000	0.000881
533.000000	0.000936
532.000000	0.000935
531.000000	0.000922
530.000000	0.000944
529.000000	0.000973
528.000000	0.000990
527.000000	0.000905
526.000000	0.000841
525.000000	0.000866
524.000000	0.000926
523.000000	0.000870
522.000000	0.000955
521.000000	0.000887
520.000000	0.000832
519.000000	0.000908
518.000000	0.000831
517.000000	0.000865
516.000000	0.000827
515.000000	0.000806
514.000000	0.000789
513.000000	0.000818
512.000000	0.000911
511.000000	0.000771
510.000000	0.000813
509.000000	0.000890
508.000000	0.000898
507.000000	0.000817
506.000000	0.000838
505.000000	0.000897
504.000000	0.000863
503.000000	0.000897
502.000000	0.000783
501.000000	0.000867
500.000000	0.000824
499.000000	0.000808
498.000000	0.000989
497.000000	0.000917
496.000000	0.000900
495.000000	0.000739
494.000000	0.000811
493.000000	0.000883
492.000000	0.000857
491.000000	0.000798
490.000000	0.000814
489.000000	0.000907
488.000000	0.000869
487.000000	0.000860
486.000000	0.000839
485.000000	0.000894
484.000000	0.000965
483.000000	0.000990
482.000000	0.000939
481.000000	0.000872
480.000000	0.000880
479.000000	0.000981
478.000000	0.000980
477.000000	0.001026
476.000000	0.000942
475.000000	0.001001
474.000000	0.000929
473.000000	0.001017
472.000000	0.000988
471.000000	0.001000
470.000000	0.000996
469.000000	0.001092
468.000000	0.001046
467.000000	0.001024
466.000000	0.001041
465.000000	0.000974
464.000000	0.000923
463.000000	0.001108
462.000000	0.000911
461.000000	0.001062
460.000000	0.001020
459.000000	0.000978
458.000000	0.001075
457.000000	0.001054
456.000000	0.001151
455.000000	0.001159
454.000000	0.001206
453.000000	0.001156
452.000000	0.001186
451.000000	0.001216
450.000000	0.001266
