PE UV       SUBTECH     SPECTRUM    ASCII       PEDS        4.00        
   -1
incognito.Sample.Raw.asc
14/04/16
17:10:45.00
14/04/16
17:10:45.00
Studente LDss

450.000000
1
Lambda 25
COM
PerkinElmer UV WinLab 6.0.4.0738 / Lambda25 1.27

480
2
1
0
0
Both on
1
1
1
None
0
0
0
0
 
 
0
0
0
0
0
 
 
 
0
 
0
326
0
 
0
 
 
 
0
0
0
 
0
 
 
 
0
 
 
0
0
0
0
0
 
 
 
 
0
0


0
0
#HDR
-1
-1
#GR
nm
A
1.0
0.0
950.000000
-1.000000
501
8
0.598649
-0.001019
#DATA
950.000000	0.462377
949.000000	0.463933
948.000000	0.465224
947.000000	0.466780
946.000000	0.468159
945.000000	0.469577
944.000000	0.470941
943.000000	0.472324
942.000000	0.473655
941.000000	0.475055
940.000000	0.476432
939.000000	0.477815
938.000000	0.479139
937.000000	0.480445
936.000000	0.481910
935.000000	0.483173
934.000000	0.484480
933.000000	0.485861
932.000000	0.487223
931.000000	0.488536
930.000000	0.489901
929.000000	0.491244
928.000000	0.492631
927.000000	0.493964
926.000000	0.495134
925.000000	0.496539
924.000000	0.498063
923.000000	0.499399
922.000000	0.500782
921.000000	0.502175
920.000000	0.503471
919.000000	0.504954
918.000000	0.506490
917.000000	0.507958
916.000000	0.509252
915.000000	0.510609
914.000000	0.512150
913.000000	0.513414
912.000000	0.514817
911.000000	0.516290
910.000000	0.517603
909.000000	0.518943
908.000000	0.520262
907.000000	0.521680
906.000000	0.523023
905.000000	0.524386
904.000000	0.525648
903.000000	0.527175
902.000000	0.528548
901.000000	0.529850
900.000000	0.531088
899.000000	0.532550
898.000000	0.533530
897.000000	0.535000
896.000000	0.536240
895.000000	0.537611
894.000000	0.538881
893.000000	0.540140
892.000000	0.541450
891.000000	0.542937
890.000000	0.544116
889.000000	0.545413
888.000000	0.546717
887.000000	0.548006
886.000000	0.549225
885.000000	0.550547
884.000000	0.551715
883.000000	0.553077
882.000000	0.554418
881.000000	0.555440
880.000000	0.556788
879.000000	0.557863
878.000000	0.558938
877.000000	0.560334
876.000000	0.561373
875.000000	0.562651
874.000000	0.563798
873.000000	0.564898
872.000000	0.566132
871.000000	0.567134
870.000000	0.568339
869.000000	0.569375
868.000000	0.570432
867.000000	0.571523
866.000000	0.572440
865.000000	0.573585
864.000000	0.574585
863.000000	0.575552
862.000000	0.576643
861.000000	0.577509
860.000000	0.578512
859.000000	0.579495
858.000000	0.580387
857.000000	0.581410
856.000000	0.582175
855.000000	0.583069
854.000000	0.583934
853.000000	0.584815
852.000000	0.585498
851.000000	0.586331
850.000000	0.587142
849.000000	0.587827
848.000000	0.588686
847.000000	0.589305
846.000000	0.590059
845.000000	0.590704
844.000000	0.591352
843.000000	0.591916
842.000000	0.592521
841.000000	0.593166
840.000000	0.593755
839.000000	0.594347
838.000000	0.594594
837.000000	0.595260
836.000000	0.595596
835.000000	0.596008
834.000000	0.596449
833.000000	0.596689
832.000000	0.597241
831.000000	0.597306
830.000000	0.597641
829.000000	0.597844
828.000000	0.598224
827.000000	0.598388
826.000000	0.598319
825.000000	0.598649
824.000000	0.598478
823.000000	0.598500
822.000000	0.598582
821.000000	0.598387
820.000000	0.598441
819.000000	0.598290
818.000000	0.598100
817.000000	0.597945
816.000000	0.597769
815.000000	0.597452
814.000000	0.597116
813.000000	0.596779
812.000000	0.596399
811.000000	0.595915
810.000000	0.595398
809.000000	0.594951
808.000000	0.594510
807.000000	0.593955
806.000000	0.593190
805.000000	0.592393
804.000000	0.591837
803.000000	0.590975
802.000000	0.590130
801.000000	0.589362
800.000000	0.588458
799.000000	0.587605
798.000000	0.586659
797.000000	0.585495
796.000000	0.584620
795.000000	0.583672
794.000000	0.582264
793.000000	0.581364
792.000000	0.580005
791.000000	0.578899
790.000000	0.577704
789.000000	0.576276
788.000000	0.574975
787.000000	0.573642
786.000000	0.572259
785.000000	0.570838
784.000000	0.569357
783.000000	0.567805
782.000000	0.566323
781.000000	0.564537
780.000000	0.562923
779.000000	0.561161
778.000000	0.559287
777.000000	0.557458
776.000000	0.555499
775.000000	0.553477
774.000000	0.551330
773.000000	0.549198
772.000000	0.547139
771.000000	0.545040
770.000000	0.542928
769.000000	0.540735
768.000000	0.538442
767.000000	0.536310
766.000000	0.533889
765.000000	0.531588
764.000000	0.529196
763.000000	0.526797
762.000000	0.524150
761.000000	0.521661
760.000000	0.519196
759.000000	0.516518
758.000000	0.513847
757.000000	0.511163
756.000000	0.508407
755.000000	0.505643
754.000000	0.502774
753.000000	0.499834
752.000000	0.497065
751.000000	0.494122
750.000000	0.491257
749.000000	0.488293
748.000000	0.485179
747.000000	0.482176
746.000000	0.479069
745.000000	0.475987
744.000000	0.472719
743.000000	0.469613
742.000000	0.466457
741.000000	0.463287
740.000000	0.460065
739.000000	0.456707
738.000000	0.453457
737.000000	0.450110
736.000000	0.446845
735.000000	0.443410
734.000000	0.439943
733.000000	0.436650
732.000000	0.433103
731.000000	0.429690
730.000000	0.426176
729.000000	0.422623
728.000000	0.418970
727.000000	0.415398
726.000000	0.411749
725.000000	0.408144
724.000000	0.404376
723.000000	0.400701
722.000000	0.397026
721.000000	0.393374
720.000000	0.389594
719.000000	0.385878
718.000000	0.382180
717.000000	0.378326
716.000000	0.374573
715.000000	0.370834
714.000000	0.367043
713.000000	0.363240
712.000000	0.359466
711.000000	0.355715
710.000000	0.351910
709.000000	0.348062
708.000000	0.344265
707.000000	0.340369
706.000000	0.336696
705.000000	0.332898
704.000000	0.329164
703.000000	0.325355
702.000000	0.321577
701.000000	0.317839
700.000000	0.314046
699.000000	0.310266
698.000000	0.306366
697.000000	0.302703
696.000000	0.298706
695.000000	0.295010
694.000000	0.291234
693.000000	0.287383
692.000000	0.283723
691.000000	0.279915
690.000000	0.276084
689.000000	0.272376
688.000000	0.268600
687.000000	0.264775
686.000000	0.261218
685.000000	0.257497
684.000000	0.253717
683.000000	0.249952
682.000000	0.246181
681.000000	0.242730
680.000000	0.239245
679.000000	0.235650
678.000000	0.231982
677.000000	0.228612
676.000000	0.225008
675.000000	0.221542
674.000000	0.218138
673.000000	0.214707
672.000000	0.211409
671.000000	0.208025
670.000000	0.204719
669.000000	0.201589
668.000000	0.198211
667.000000	0.195014
666.000000	0.191880
665.000000	0.188708
664.000000	0.185496
663.000000	0.182264
662.000000	0.179140
661.000000	0.176070
660.000000	0.173003
659.000000	0.169929
658.000000	0.166901
657.000000	0.163801
656.000000	0.160968
655.000000	0.158025
654.000000	0.155126
653.000000	0.152275
652.000000	0.149448
651.000000	0.146621
650.000000	0.143936
649.000000	0.141024
648.000000	0.138463
647.000000	0.135797
646.000000	0.133217
645.000000	0.130626
644.000000	0.127995
643.000000	0.125397
642.000000	0.123000
641.000000	0.120474
640.000000	0.118105
639.000000	0.115835
638.000000	0.113473
637.000000	0.111186
636.000000	0.108895
635.000000	0.106619
634.000000	0.104476
633.000000	0.102314
632.000000	0.100194
631.000000	0.098009
630.000000	0.095946
629.000000	0.093966
628.000000	0.091870
627.000000	0.089922
626.000000	0.087827
625.000000	0.086006
624.000000	0.084055
623.000000	0.082146
622.000000	0.080425
621.000000	0.078687
620.000000	0.076795
619.000000	0.075096
618.000000	0.073486
617.000000	0.071666
616.000000	0.070121
615.000000	0.068400
614.000000	0.066860
613.000000	0.065268
612.000000	0.063855
611.000000	0.062200
610.000000	0.060925
609.000000	0.059467
608.000000	0.058055
607.000000	0.056766
606.000000	0.055382
605.000000	0.054095
604.000000	0.052765
603.000000	0.051510
602.000000	0.050211
601.000000	0.049004
600.000000	0.047867
599.000000	0.046713
598.000000	0.045571
597.000000	0.044442
596.000000	0.043282
595.000000	0.042279
594.000000	0.041095
593.000000	0.040066
592.000000	0.039133
591.000000	0.038154
590.000000	0.037159
589.000000	0.036224
588.000000	0.035260
587.000000	0.034317
586.000000	0.033414
585.000000	0.032562
584.000000	0.031701
583.000000	0.030843
582.000000	0.030088
581.000000	0.029215
580.000000	0.028519
579.000000	0.027719
578.000000	0.026946
577.000000	0.026227
576.000000	0.025415
575.000000	0.024698
574.000000	0.024085
573.000000	0.023420
572.000000	0.022692
571.000000	0.022175
570.000000	0.021587
569.000000	0.021028
568.000000	0.020442
567.000000	0.019889
566.000000	0.019257
565.000000	0.018738
564.000000	0.018214
563.000000	0.017662
562.000000	0.017216
561.000000	0.016626
560.000000	0.016186
559.000000	0.015715
558.000000	0.015179
557.000000	0.014648
556.000000	0.014258
555.000000	0.013735
554.000000	0.013339
553.000000	0.012964
552.000000	0.012524
551.000000	0.012151
550.000000	0.011757
549.000000	0.011373
548.000000	0.011029
547.000000	0.010561
546.000000	0.010279
545.000000	0.009903
544.000000	0.009664
543.000000	0.009270
542.000000	0.008928
541.000000	0.008636
540.000000	0.008338
539.000000	0.008152
538.000000	0.007691
537.000000	0.007446
536.000000	0.007217
535.000000	0.006861
534.000000	0.006544
533.000000	0.006373
532.000000	0.006061
531.000000	0.005835
530.000000	0.005602
529.000000	0.005390
528.000000	0.005233
527.000000	0.004907
526.000000	0.004607
525.000000	0.004340
524.000000	0.004271
523.000000	0.004065
522.000000	0.003833
521.000000	0.003683
520.000000	0.003541
519.000000	0.003322
518.000000	0.003177
517.000000	0.002950
516.000000	0.002784
515.000000	0.002583
514.000000	0.002425
513.000000	0.002344
512.000000	0.002283
511.000000	0.002067
510.000000	0.001883
509.000000	0.001828
508.000000	0.001619
507.000000	0.001487
506.000000	0.001474
505.000000	0.001262
504.000000	0.001249
503.000000	0.001083
502.000000	0.000931
501.000000	0.000952
500.000000	0.000807
499.000000	0.000630
498.000000	0.000727
497.000000	0.000579
496.000000	0.000460
495.000000	0.000367
494.000000	0.000321
493.000000	0.000228
492.000000	0.000173
491.000000	0.000080
490.000000	-0.000046
489.000000	0.000004
488.000000	-0.000084
487.000000	-0.000143
486.000000	-0.000261
485.000000	-0.000269
484.000000	-0.000252
483.000000	-0.000328
482.000000	-0.000416
481.000000	-0.000433
480.000000	-0.000483
479.000000	-0.000517
478.000000	-0.000500
477.000000	-0.000533
476.000000	-0.000525
475.000000	-0.000634
474.000000	-0.000583
473.000000	-0.000717
472.000000	-0.000721
471.000000	-0.000704
470.000000	-0.000738
469.000000	-0.000784
468.000000	-0.000792
467.000000	-0.000838
466.000000	-0.000825
465.000000	-0.000858
464.000000	-0.000972
463.000000	-0.000833
462.000000	-0.000930
461.000000	-0.000875
460.000000	-0.000875
459.000000	-0.001018
458.000000	-0.000959
457.000000	-0.000968
456.000000	-0.000884
455.000000	-0.000863
454.000000	-0.000926
453.000000	-0.001019
452.000000	-0.000973
451.000000	-0.000940
450.000000	-0.000902
