PE UV       SUBTECH     SPECTRUM    ASCII       PEDS        4.00        
   -1
100% or 0 Absorbance Baseline.Correction.Raw.asc
14/04/16
15:31:40.00
14/04/16
15:31:40.00
Studente LDss

450.000000
1
Lambda 25
COM
PerkinElmer UV WinLab 6.0.4.0738 / Lambda25 1.27

480
0
1
0
0
Both on
0
1
1
None
0
0
0
0
 
 
0
0
0
0
0
 
 
 
0
 
0
326
0
 
0
 
 
 
0
0
0
 
0
 
 
 
0
 
 
0
0
0
0
0
 
 
 
 
0
0


0
0
#HDR
-1
-1
#GR
nm
A
1.0
0.0
950.000000
-1.000000
501
8
-0.006855
-0.040143
#DATA
950.000000	-0.017488
949.000000	-0.018226
948.000000	-0.018950
947.000000	-0.019644
946.000000	-0.020299
945.000000	-0.020904
944.000000	-0.021590
943.000000	-0.022197
942.000000	-0.022771
941.000000	-0.023191
940.000000	-0.023528
939.000000	-0.023931
938.000000	-0.024301
937.000000	-0.024588
936.000000	-0.024752
935.000000	-0.024953
934.000000	-0.025044
933.000000	-0.025183
932.000000	-0.025228
931.000000	-0.025355
930.000000	-0.025466
929.000000	-0.025613
928.000000	-0.025605
927.000000	-0.025535
926.000000	-0.025650
925.000000	-0.025445
924.000000	-0.025339
923.000000	-0.025150
922.000000	-0.025105
921.000000	-0.025068
920.000000	-0.024937
919.000000	-0.024736
918.000000	-0.024601
917.000000	-0.024350
916.000000	-0.024252
915.000000	-0.024005
914.000000	-0.024001
913.000000	-0.023898
912.000000	-0.023943
911.000000	-0.023861
910.000000	-0.023812
909.000000	-0.023824
908.000000	-0.023976
907.000000	-0.023976
906.000000	-0.024186
905.000000	-0.024428
904.000000	-0.024761
903.000000	-0.025121
902.000000	-0.025515
901.000000	-0.025904
900.000000	-0.026370
899.000000	-0.026958
898.000000	-0.027386
897.000000	-0.027774
896.000000	-0.028291
895.000000	-0.028649
894.000000	-0.029096
893.000000	-0.029449
892.000000	-0.029883
891.000000	-0.030320
890.000000	-0.030677
889.000000	-0.031069
888.000000	-0.031328
887.000000	-0.031740
886.000000	-0.032075
885.000000	-0.032470
884.000000	-0.032848
883.000000	-0.033138
882.000000	-0.033496
881.000000	-0.033894
880.000000	-0.034163
879.000000	-0.034480
878.000000	-0.034765
877.000000	-0.035093
876.000000	-0.035354
875.000000	-0.035666
874.000000	-0.035874
873.000000	-0.036214
872.000000	-0.036501
871.000000	-0.036665
870.000000	-0.036976
869.000000	-0.037211
868.000000	-0.037379
867.000000	-0.037538
866.000000	-0.037825
865.000000	-0.038008
864.000000	-0.038239
863.000000	-0.038330
862.000000	-0.038576
861.000000	-0.038676
860.000000	-0.038922
859.000000	-0.039025
858.000000	-0.039228
857.000000	-0.039291
856.000000	-0.039414
855.000000	-0.039517
854.000000	-0.039668
853.000000	-0.039688
852.000000	-0.039822
851.000000	-0.039834
850.000000	-0.039925
849.000000	-0.040048
848.000000	-0.039977
847.000000	-0.040088
846.000000	-0.040104
845.000000	-0.040127
844.000000	-0.040096
843.000000	-0.040076
842.000000	-0.040143
841.000000	-0.040072
840.000000	-0.040040
839.000000	-0.039985
838.000000	-0.039957
837.000000	-0.039914
836.000000	-0.039799
835.000000	-0.039668
834.000000	-0.039723
833.000000	-0.039509
832.000000	-0.039513
831.000000	-0.039363
830.000000	-0.039355
829.000000	-0.039132
828.000000	-0.038970
827.000000	-0.038914
826.000000	-0.038763
825.000000	-0.038576
824.000000	-0.038457
823.000000	-0.038382
822.000000	-0.038151
821.000000	-0.038075
820.000000	-0.037865
819.000000	-0.037669
818.000000	-0.037534
817.000000	-0.037327
816.000000	-0.037144
815.000000	-0.036948
814.000000	-0.036697
813.000000	-0.036549
812.000000	-0.036333
811.000000	-0.036186
810.000000	-0.035906
809.000000	-0.035646
808.000000	-0.035402
807.000000	-0.035290
806.000000	-0.035093
805.000000	-0.034897
804.000000	-0.034568
803.000000	-0.034352
802.000000	-0.034123
801.000000	-0.033886
800.000000	-0.033629
799.000000	-0.033388
798.000000	-0.033182
797.000000	-0.033013
796.000000	-0.032732
795.000000	-0.032635
794.000000	-0.032498
793.000000	-0.032441
792.000000	-0.032212
791.000000	-0.032091
790.000000	-0.031933
789.000000	-0.031687
788.000000	-0.031542
787.000000	-0.031348
786.000000	-0.031166
785.000000	-0.030867
784.000000	-0.030741
783.000000	-0.030535
782.000000	-0.030365
781.000000	-0.030142
780.000000	-0.029939
779.000000	-0.029846
778.000000	-0.029530
777.000000	-0.029278
776.000000	-0.029083
775.000000	-0.028953
774.000000	-0.028734
773.000000	-0.028604
772.000000	-0.028461
771.000000	-0.028282
770.000000	-0.028132
769.000000	-0.027977
768.000000	-0.027778
767.000000	-0.027586
766.000000	-0.027350
765.000000	-0.027219
764.000000	-0.026958
763.000000	-0.026819
762.000000	-0.026590
761.000000	-0.026464
760.000000	-0.026411
759.000000	-0.026133
758.000000	-0.026084
757.000000	-0.025924
756.000000	-0.025773
755.000000	-0.025548
754.000000	-0.025376
753.000000	-0.025265
752.000000	-0.025076
751.000000	-0.024912
750.000000	-0.024859
749.000000	-0.024629
748.000000	-0.024551
747.000000	-0.024383
746.000000	-0.024280
745.000000	-0.024141
744.000000	-0.023980
743.000000	-0.023886
742.000000	-0.023689
741.000000	-0.023553
740.000000	-0.023397
739.000000	-0.023314
738.000000	-0.023137
737.000000	-0.023104
736.000000	-0.022939
735.000000	-0.022766
734.000000	-0.022602
733.000000	-0.022544
732.000000	-0.022375
731.000000	-0.022243
730.000000	-0.022127
729.000000	-0.022016
728.000000	-0.021896
727.000000	-0.021818
726.000000	-0.021652
725.000000	-0.021590
724.000000	-0.021483
723.000000	-0.021301
722.000000	-0.021264
721.000000	-0.021078
720.000000	-0.021049
719.000000	-0.020929
718.000000	-0.020813
717.000000	-0.020763
716.000000	-0.020606
715.000000	-0.020515
714.000000	-0.020415
713.000000	-0.020386
712.000000	-0.020195
711.000000	-0.020096
710.000000	-0.020038
709.000000	-0.019930
708.000000	-0.019835
707.000000	-0.019768
706.000000	-0.019631
705.000000	-0.019557
704.000000	-0.019519
703.000000	-0.019357
702.000000	-0.019291
701.000000	-0.019208
700.000000	-0.019041
699.000000	-0.018967
698.000000	-0.018854
697.000000	-0.018829
696.000000	-0.018717
695.000000	-0.018696
694.000000	-0.018592
693.000000	-0.018542
692.000000	-0.018405
691.000000	-0.018355
690.000000	-0.018230
689.000000	-0.018184
688.000000	-0.018043
687.000000	-0.018014
686.000000	-0.017834
685.000000	-0.017743
684.000000	-0.017655
683.000000	-0.017655
682.000000	-0.017663
681.000000	-0.017488
680.000000	-0.017501
679.000000	-0.017367
678.000000	-0.017342
677.000000	-0.017321
676.000000	-0.017334
675.000000	-0.017171
674.000000	-0.017134
673.000000	-0.017033
672.000000	-0.016967
671.000000	-0.016858
670.000000	-0.016745
669.000000	-0.016745
668.000000	-0.016749
667.000000	-0.016616
666.000000	-0.016586
665.000000	-0.016544
664.000000	-0.016515
663.000000	-0.016407
662.000000	-0.016319
661.000000	-0.016302
660.000000	-0.016294
659.000000	-0.016268
658.000000	-0.016264
657.000000	-0.016268
656.000000	-0.016202
655.000000	-0.016181
654.000000	-0.016189
653.000000	-0.016101
652.000000	-0.016109
651.000000	-0.016043
650.000000	-0.016017
649.000000	-0.016055
648.000000	-0.016022
647.000000	-0.016022
646.000000	-0.015967
645.000000	-0.015950
644.000000	-0.015946
643.000000	-0.015904
642.000000	-0.015867
641.000000	-0.015812
640.000000	-0.015804
639.000000	-0.015783
638.000000	-0.015749
637.000000	-0.015758
636.000000	-0.015741
635.000000	-0.015716
634.000000	-0.015796
633.000000	-0.015674
632.000000	-0.015641
631.000000	-0.015645
630.000000	-0.015615
629.000000	-0.015590
628.000000	-0.015691
627.000000	-0.015670
626.000000	-0.015775
625.000000	-0.015816
624.000000	-0.015846
623.000000	-0.015766
622.000000	-0.015829
621.000000	-0.015858
620.000000	-0.016001
619.000000	-0.015984
618.000000	-0.016030
617.000000	-0.016101
616.000000	-0.016185
615.000000	-0.016206
614.000000	-0.016252
613.000000	-0.016381
612.000000	-0.016411
611.000000	-0.016469
610.000000	-0.016507
609.000000	-0.016574
608.000000	-0.016632
607.000000	-0.016682
606.000000	-0.016770
605.000000	-0.016829
604.000000	-0.016967
603.000000	-0.017054
602.000000	-0.017104
601.000000	-0.017159
600.000000	-0.017275
599.000000	-0.017338
598.000000	-0.017434
597.000000	-0.017517
596.000000	-0.017584
595.000000	-0.017768
594.000000	-0.017747
593.000000	-0.017901
592.000000	-0.017968
591.000000	-0.017989
590.000000	-0.017976
589.000000	-0.017984
588.000000	-0.017905
587.000000	-0.017759
586.000000	-0.017655
585.000000	-0.017359
584.000000	-0.017100
583.000000	-0.016749
582.000000	-0.016356
581.000000	-0.015971
580.000000	-0.015506
579.000000	-0.014970
578.000000	-0.014500
577.000000	-0.013911
576.000000	-0.013225
575.000000	-0.012567
574.000000	-0.012040
573.000000	-0.011384
572.000000	-0.010893
571.000000	-0.010321
570.000000	-0.009999
569.000000	-0.009523
568.000000	-0.009187
567.000000	-0.008745
566.000000	-0.008379
565.000000	-0.007999
564.000000	-0.007744
563.000000	-0.007556
562.000000	-0.007287
561.000000	-0.007159
560.000000	-0.007120
559.000000	-0.006911
558.000000	-0.006898
557.000000	-0.006872
556.000000	-0.006902
555.000000	-0.006872
554.000000	-0.006872
553.000000	-0.006898
552.000000	-0.006872
551.000000	-0.006855
550.000000	-0.006932
549.000000	-0.006949
548.000000	-0.006988
547.000000	-0.007099
546.000000	-0.007159
545.000000	-0.007167
544.000000	-0.007368
543.000000	-0.007381
542.000000	-0.007530
541.000000	-0.007624
540.000000	-0.007726
539.000000	-0.007846
538.000000	-0.008038
537.000000	-0.008144
536.000000	-0.008409
535.000000	-0.008519
534.000000	-0.008668
533.000000	-0.008796
532.000000	-0.008953
531.000000	-0.009064
530.000000	-0.009128
529.000000	-0.009183
528.000000	-0.009238
527.000000	-0.009447
526.000000	-0.009468
525.000000	-0.009544
524.000000	-0.009591
523.000000	-0.009668
522.000000	-0.009740
521.000000	-0.009765
520.000000	-0.009803
519.000000	-0.009880
518.000000	-0.010011
517.000000	-0.010016
516.000000	-0.010105
515.000000	-0.010126
514.000000	-0.010262
513.000000	-0.010313
512.000000	-0.010389
511.000000	-0.010444
510.000000	-0.010537
509.000000	-0.010631
508.000000	-0.010677
507.000000	-0.010783
506.000000	-0.010851
505.000000	-0.010970
504.000000	-0.010948
503.000000	-0.011080
502.000000	-0.011156
501.000000	-0.011262
500.000000	-0.011295
499.000000	-0.011372
498.000000	-0.011558
497.000000	-0.011592
496.000000	-0.011609
495.000000	-0.011752
494.000000	-0.011845
493.000000	-0.011871
492.000000	-0.012006
491.000000	-0.012052
490.000000	-0.012158
489.000000	-0.012318
488.000000	-0.012344
487.000000	-0.012432
486.000000	-0.012622
485.000000	-0.012706
484.000000	-0.012753
483.000000	-0.012955
482.000000	-0.013056
481.000000	-0.013052
480.000000	-0.013221
479.000000	-0.013305
478.000000	-0.013465
477.000000	-0.013553
476.000000	-0.013604
475.000000	-0.013747
474.000000	-0.013936
473.000000	-0.013949
472.000000	-0.014054
471.000000	-0.014159
470.000000	-0.014180
469.000000	-0.014273
468.000000	-0.014416
467.000000	-0.014416
466.000000	-0.014462
465.000000	-0.014525
464.000000	-0.014630
463.000000	-0.014630
462.000000	-0.014659
461.000000	-0.014563
460.000000	-0.014592
459.000000	-0.014487
458.000000	-0.014403
457.000000	-0.014348
456.000000	-0.014264
455.000000	-0.014130
454.000000	-0.014109
453.000000	-0.013840
452.000000	-0.013663
451.000000	-0.013591
450.000000	-0.013318
