PE UV       SUBTECH     SPECTRUM    ASCII       PEDS        4.00        
   -1
acqua.Sample.Raw.asc
14/04/16
15:33:22.00
14/04/16
15:33:22.00
Studente LDss

450.000000
1
Lambda 25
COM
PerkinElmer UV WinLab 6.0.4.0738 / Lambda25 1.27

480
2
1
0
0
Both on
1
1
1
None
0
0
0
0
 
 
0
0
0
0
0
 
 
 
0
 
0
326
0
 
0
 
 
 
0
0
0
 
0
 
 
 
0
 
 
0
0
0
0
0
 
 
 
 
0
0


0
0
#HDR
-1
-1
#GR
nm
A
1.0
0.0
950.000000
-1.000000
501
8
0.002362
-0.001018
#DATA
950.000000	-0.000350
949.000000	-0.000262
948.000000	-0.000237
947.000000	-0.000274
946.000000	-0.000224
945.000000	-0.000265
944.000000	-0.000376
943.000000	-0.000157
942.000000	-0.000198
941.000000	-0.000255
940.000000	-0.000255
939.000000	-0.000197
938.000000	-0.000181
937.000000	-0.000168
936.000000	-0.000279
935.000000	-0.000266
934.000000	-0.000299
933.000000	-0.000348
932.000000	-0.000336
931.000000	-0.000295
930.000000	-0.000311
929.000000	-0.000405
928.000000	-0.000536
927.000000	-0.000479
926.000000	-0.000385
925.000000	-0.000610
924.000000	-0.000545
923.000000	-0.000590
922.000000	-0.000623
921.000000	-0.000619
920.000000	-0.000754
919.000000	-0.000685
918.000000	-0.000730
917.000000	-0.000820
916.000000	-0.000681
915.000000	-0.000780
914.000000	-0.000768
913.000000	-0.000723
912.000000	-0.000805
911.000000	-0.000756
910.000000	-0.000842
909.000000	-0.000891
908.000000	-0.000772
907.000000	-0.001018
906.000000	-0.000977
905.000000	-0.000919
904.000000	-0.000857
903.000000	-0.000839
902.000000	-0.000871
901.000000	-0.000952
900.000000	-0.000923
899.000000	-0.000710
898.000000	-0.000925
897.000000	-0.000948
896.000000	-0.000841
895.000000	-0.000776
894.000000	-0.000864
893.000000	-0.000880
892.000000	-0.000871
891.000000	-0.000664
890.000000	-0.000788
889.000000	-0.000759
888.000000	-0.000779
887.000000	-0.000698
886.000000	-0.000738
885.000000	-0.000733
884.000000	-0.000523
883.000000	-0.000567
882.000000	-0.000623
881.000000	-0.000534
880.000000	-0.000578
879.000000	-0.000557
878.000000	-0.000589
877.000000	-0.000564
876.000000	-0.000580
875.000000	-0.000424
874.000000	-0.000583
873.000000	-0.000491
872.000000	-0.000471
871.000000	-0.000451
870.000000	-0.000427
869.000000	-0.000410
868.000000	-0.000422
867.000000	-0.000466
866.000000	-0.000422
865.000000	-0.000346
864.000000	-0.000314
863.000000	-0.000437
862.000000	-0.000322
861.000000	-0.000413
860.000000	-0.000318
859.000000	-0.000353
858.000000	-0.000270
857.000000	-0.000353
856.000000	-0.000274
855.000000	-0.000277
854.000000	-0.000143
853.000000	-0.000269
852.000000	-0.000230
851.000000	-0.000281
850.000000	-0.000238
849.000000	-0.000194
848.000000	-0.000242
847.000000	-0.000182
846.000000	-0.000127
845.000000	-0.000166
844.000000	-0.000245
843.000000	-0.000249
842.000000	-0.000230
841.000000	-0.000281
840.000000	-0.000202
839.000000	-0.000293
838.000000	-0.000182
837.000000	-0.000147
836.000000	-0.000250
835.000000	-0.000269
834.000000	-0.000059
833.000000	-0.000289
832.000000	-0.000131
831.000000	-0.000174
830.000000	-0.000059
829.000000	-0.000167
828.000000	-0.000210
827.000000	-0.000155
826.000000	-0.000167
825.000000	-0.000083
824.000000	-0.000139
823.000000	-0.000072
822.000000	-0.000127
821.000000	-0.000036
820.000000	-0.000080
819.000000	-0.000032
818.000000	-0.000088
817.000000	-0.000080
816.000000	-0.000104
815.000000	-0.000032
814.000000	-0.000124
813.000000	0.000016
812.000000	-0.000060
811.000000	0.000048
810.000000	-0.000044
809.000000	-0.000064
808.000000	-0.000028
807.000000	-0.000016
806.000000	-0.000036
805.000000	0.000056
804.000000	-0.000032
803.000000	-0.000056
802.000000	0.000028
801.000000	-0.000036
800.000000	-0.000008
799.000000	-0.000048
798.000000	-0.000008
797.000000	-0.000004
796.000000	-0.000056
795.000000	-0.000044
794.000000	0.000101
793.000000	0.000246
792.000000	0.000194
791.000000	0.000303
790.000000	0.000311
789.000000	0.000303
788.000000	0.000388
787.000000	0.000360
786.000000	0.000364
785.000000	0.000267
784.000000	0.000340
783.000000	0.000377
782.000000	0.000401
781.000000	0.000511
780.000000	0.000357
779.000000	0.000426
778.000000	0.000365
777.000000	0.000504
776.000000	0.000398
775.000000	0.000419
774.000000	0.000419
773.000000	0.000480
772.000000	0.000468
771.000000	0.000484
770.000000	0.000587
769.000000	0.000477
768.000000	0.000612
767.000000	0.000620
766.000000	0.000535
765.000000	0.000645
764.000000	0.000551
763.000000	0.000490
762.000000	0.000597
761.000000	0.000572
760.000000	0.000699
759.000000	0.000557
758.000000	0.000753
757.000000	0.000786
756.000000	0.000754
755.000000	0.000693
754.000000	0.000644
753.000000	0.000755
752.000000	0.000673
751.000000	0.000644
750.000000	0.000870
749.000000	0.000616
748.000000	0.000748
747.000000	0.000756
746.000000	0.000789
745.000000	0.000789
744.000000	0.000819
743.000000	0.000848
742.000000	0.000741
741.000000	0.000774
740.000000	0.000663
739.000000	0.000725
738.000000	0.000758
737.000000	0.000828
736.000000	0.000849
735.000000	0.000808
734.000000	0.000739
733.000000	0.000879
732.000000	0.000851
731.000000	0.000752
730.000000	0.000793
729.000000	0.000860
728.000000	0.000798
727.000000	0.000864
726.000000	0.000798
725.000000	0.000798
724.000000	0.000923
723.000000	0.000824
722.000000	0.000840
721.000000	0.000803
720.000000	0.000919
719.000000	0.000891
718.000000	0.000874
717.000000	0.000920
716.000000	0.000854
715.000000	0.000879
714.000000	0.000933
713.000000	0.000991
712.000000	0.000871
711.000000	0.000880
710.000000	0.000913
709.000000	0.000897
708.000000	0.000943
707.000000	0.000893
706.000000	0.000935
705.000000	0.001006
704.000000	0.001039
703.000000	0.000940
702.000000	0.001036
701.000000	0.001032
700.000000	0.000974
699.000000	0.000907
698.000000	0.000987
697.000000	0.000978
696.000000	0.000958
695.000000	0.001108
694.000000	0.001008
693.000000	0.001037
692.000000	0.000988
691.000000	0.001055
690.000000	0.001017
689.000000	0.001113
688.000000	0.001051
687.000000	0.001064
686.000000	0.001093
685.000000	0.001035
684.000000	0.000889
683.000000	0.000755
682.000000	0.000889
681.000000	0.000718
680.000000	0.000806
679.000000	0.000768
678.000000	0.000789
677.000000	0.000873
676.000000	0.000973
675.000000	0.000886
674.000000	0.000940
673.000000	0.000945
672.000000	0.000911
671.000000	0.000945
670.000000	0.000945
669.000000	0.000950
668.000000	0.001000
667.000000	0.000996
666.000000	0.000963
665.000000	0.000933
664.000000	0.000984
663.000000	0.000955
662.000000	0.000938
661.000000	0.001064
660.000000	0.001068
659.000000	0.001051
658.000000	0.001131
657.000000	0.001055
656.000000	0.001085
655.000000	0.001106
654.000000	0.001081
653.000000	0.001073
652.000000	0.001173
651.000000	0.001098
650.000000	0.001123
649.000000	0.001262
648.000000	0.001119
647.000000	0.001207
646.000000	0.001132
645.000000	0.001144
644.000000	0.001182
643.000000	0.001170
642.000000	0.001178
641.000000	0.001141
640.000000	0.001199
639.000000	0.001208
638.000000	0.001187
637.000000	0.001271
636.000000	0.001179
635.000000	0.001254
634.000000	0.001346
633.000000	0.001250
632.000000	0.001221
631.000000	0.001355
630.000000	0.001259
629.000000	0.001267
628.000000	0.001343
627.000000	0.001208
626.000000	0.001376
625.000000	0.001426
624.000000	0.001434
623.000000	0.001359
622.000000	0.001313
621.000000	0.001359
620.000000	0.001438
619.000000	0.001337
618.000000	0.001329
617.000000	0.001366
616.000000	0.001383
615.000000	0.001391
614.000000	0.001387
613.000000	0.001403
612.000000	0.001433
611.000000	0.001474
610.000000	0.001411
609.000000	0.001474
608.000000	0.001457
607.000000	0.001432
606.000000	0.001515
605.000000	0.001427
604.000000	0.001531
603.000000	0.001535
602.000000	0.001506
601.000000	0.001451
600.000000	0.001526
599.000000	0.001559
598.000000	0.001513
597.000000	0.001571
596.000000	0.001479
595.000000	0.001591
594.000000	0.001558
593.000000	0.001595
592.000000	0.001595
591.000000	0.001628
590.000000	0.001595
589.000000	0.001645
588.000000	0.001637
587.000000	0.001604
586.000000	0.001621
585.000000	0.001601
584.000000	0.001569
583.000000	0.001582
582.000000	0.001571
581.000000	0.001573
580.000000	0.001520
579.000000	0.001547
578.000000	0.001570
577.000000	0.001559
576.000000	0.001392
575.000000	0.001466
574.000000	0.001519
573.000000	0.001500
572.000000	0.001417
571.000000	0.001419
570.000000	0.001501
569.000000	0.001473
568.000000	0.001542
567.000000	0.001390
566.000000	0.001447
565.000000	0.001422
564.000000	0.001367
563.000000	0.001535
562.000000	0.001437
561.000000	0.001386
560.000000	0.001416
559.000000	0.001314
558.000000	0.001409
557.000000	0.001417
556.000000	0.001439
555.000000	0.001559
554.000000	0.001546
553.000000	0.001503
552.000000	0.001482
551.000000	0.001447
550.000000	0.001567
549.000000	0.001503
548.000000	0.001468
547.000000	0.001498
546.000000	0.001596
545.000000	0.001433
544.000000	0.001587
543.000000	0.001604
542.000000	0.001608
541.000000	0.001535
540.000000	0.001641
539.000000	0.001564
538.000000	0.001597
537.000000	0.001618
536.000000	0.001711
535.000000	0.001540
534.000000	0.001642
533.000000	0.001659
532.000000	0.001611
531.000000	0.001602
530.000000	0.001615
529.000000	0.001589
528.000000	0.001636
527.000000	0.001767
526.000000	0.001707
525.000000	0.001630
524.000000	0.001707
523.000000	0.001664
522.000000	0.001685
521.000000	0.001578
520.000000	0.001651
519.000000	0.001680
518.000000	0.001667
517.000000	0.001680
516.000000	0.001675
515.000000	0.001598
514.000000	0.001755
513.000000	0.001708
512.000000	0.001708
511.000000	0.001703
510.000000	0.001686
509.000000	0.001703
508.000000	0.001728
507.000000	0.001766
506.000000	0.001749
505.000000	0.001782
504.000000	0.001723
503.000000	0.001726
502.000000	0.001828
501.000000	0.001785
500.000000	0.001785
499.000000	0.001755
498.000000	0.001826
497.000000	0.001894
496.000000	0.001746
495.000000	0.001851
494.000000	0.001897
493.000000	0.001893
492.000000	0.001884
491.000000	0.001867
490.000000	0.001871
489.000000	0.001900
488.000000	0.001946
487.000000	0.001831
486.000000	0.001996
485.000000	0.002038
484.000000	0.001910
483.000000	0.002028
482.000000	0.002108
481.000000	0.002028
480.000000	0.001980
479.000000	0.002001
478.000000	0.002038
477.000000	0.002084
476.000000	0.002067
475.000000	0.002092
474.000000	0.002129
473.000000	0.002133
472.000000	0.002137
471.000000	0.002200
470.000000	0.002200
469.000000	0.002258
468.000000	0.002220
467.000000	0.002177
466.000000	0.002101
465.000000	0.002097
464.000000	0.002307
463.000000	0.002126
462.000000	0.002303
461.000000	0.002215
460.000000	0.002362
459.000000	0.002253
458.000000	0.002275
457.000000	0.002237
456.000000	0.002275
455.000000	0.002175
454.000000	0.002247
453.000000	0.002214
452.000000	0.002240
451.000000	0.002224
450.000000	0.002272
